-2556.1,-2678.6,-2797.4,-2922.9,-3046.8,-3159.4,-3275,-3397.7,-3517.2,-3638.6,-3761,-3876,-3990.2,-4101.4,-4209.2,-4328.9,-4449.6,-4558.2,-4672.5,-4789.7,-4898.7,-5016.2,-5142.9,-5269.2,-5401.4,-5533.6,-5666.6,-5807,-5930.2,-6027.8,-6129.6,-6239.4,-6334.2,-6389.3,-6374.5,-6266.3,-6036.1,-5654.4,-5126.1,-4458.9,-3656.2,-2765.4,-1834.4,-872.56,86.859,985.81,1796.7,2515.7,3134.9,3639.8,4032.5,4340.2,4573.7,4730.3,4834.8,4907.7,4948,4977.1,5014.7,5051.9,5090.5,5137.1,5175.6,5198.4,5209.4,5194.2,5133.3,5022.6,4866.4,4679.9,4480.3,4267.7,4056.7,3881.5,3741,3621.7,3540.6,3490.4,3451.5,3443.3,3455.6,3458.2,3476.9,3512.1,3517.6,3503.9,3485.6,3434.4,3359.9,3274.3,3153.9,3013.1,2875.7,2727.8,2568.5,2400.8,2218.2,2044.9,1888.9,1719.6,1546.4,1397.1,1251.9,1096.6,947.55,805.43,664.03,528.21,398,271.64,145.09,14.779,-108.17,-222.66,-340.24,-452.4,-558.09,-674.57,-789.73,-886.31,-980.78,-1081,-1176.1,-1271.8,-1375.1,-1475.2,-1570.4,-1674.4,-1784.5,-1885.9,-1985.2,-2096.6,-2218.5,-2341.5,-2454.3,-2562.5,-2684.2,-2804.9,-2909.3,-3023,-3145.1,-3248.8,-3353.6,-3479.7,-3605.2,-3721.8,-3845.2,-3974.2,-4095.4,-4215.2,-4348.7,-4485,-4619.7,-4770.2,-4921.2,-5053.1,-5186.7,-5325.1,-5452.3,-5572.3,-5682.2,-5780.4,-5863.8,-5889.6,-5821.1,-5643.4,-5323.5,-4846.9,-4228.5,-3479.7,-2629.5,-1714.2,-765.13,168.28,1054.9,1887.4,2633.9,3267.4,3788.5,4202,4523.9,4764.9,4927.3,5032.3,5092.8,5121.3,5157.2,5197.1,5208.9,5223,5265.5,5304.7,5336.2,5363.6,5346.2,5272.6,5167.7,5022.8,4831.3,4618.4,4399.3,4185,3993.6,3825.2,3681.1,3571.4,3491.9,3443.8,3429.6,3422.4,3416,3436,3464.3,3461.1,3437.4,3415.8,3383.7,3326.7,3248.5,3150,3025.6,2886.2,2746.5,2594.2,2421.2,2249,2080.3,1905,1738.7,1576.7,1398.1,1226.8,1079,926.01,765.08,614.43,467.98,323.85,184.84,45.697,-83.241,-200.89,-323.63,-440.63,-544.28,-654.51,-762.74,-851.59,-941.15,-1042.2,-1145.2,-1252.4,-1357.2,-1449.3,-1540,-1635.3,-1732.9,-1840,-1951.8,-2059.6,-2167.3,-2273.2,-2376.3,-2485.6,-2599,-2713.7,-2838.1,-2967.4,-3092.6,-3218.2,-3343.2,-3461.5,-3579.6,-3701.9,-3824.8,-3951.3,-4079.7,-4197.7,-4308.7,-4426.4,-4546.5,-4661.6,-4774.1,-4884.8,-4998.7,-5120.4,-5245,-5376.8,-5515.2,-5644,-5774.9,-5923.3,-6061.9,-6183.7,-6308.9,-6419.6,-6505.2,-6586.9,-6637,-6598,-6442.2,-6144.6,-5688.9,-5083.4,-4329.1,-3446.6,-2493.5,-1504.5,-499.45,475.3,1385.8,2214.7,2927.5,3510.5,3986.6,4365.3,4646.9,4853.5,5006.4,5108.7,5168.8,5209.2,5246.4,5283.7,5326.6,5384.1,5449.9,5512.9,5570.9,5612,5612.5,5563,5463.7,5310.1,5115.9,4909.3,4694.9,4476.6,4279.8,4104.3,3940.9,3820.2,3747.4,3686.6,3643.3,3632.7,3627.8,3622.9,3628.1,3621.4,3597.2,3564.8,3508.5,3430.9,3352.7,3263.5,3149.6,3014.5,2858.3,2690.3,2524.9,2359.5,2189.2,2011.8,1826.8,1650.5,1491.6,1332.4,1168,1006.9,847.81,701.15,570.34,429.89,286.97,169.23,55.776,-67.052,-179.53,-293.64,-413.47,-512.32,-606.84,-717.57,-819.35,-911.22,-1011.6,-1110.4,-1203.3,-1298.3,-1396.1,-1497.6,-1593.8,-1681.2,-1779.1,-1888.7,-1994.2,-2101.9,-2218.7,-2334.6,-2441.2,-2546.2,-2665.8,-2790.4,-2899.9,-3012,-3139.8,-3258.1,-3365.6,-3484.9,-3606.9,-3717.5,-3827.6,-3952.8,-4092.7,-4221,-4328.6,-4449.9,-4594.2,-4733.1,-4868.4,-5012.2,-5151.3,-5281.2,-5406.3,-5524.2,-5640.7,-5757.6,-5868.1,-5969.3,-6036.7,-6024.6,-5901.9,-5651.3,-5258.9,-4718.4,-4034.1,-3234.4,-2354,-1415.5,-461.39,457.4,1322.2,2112.9,2796.5,3369.1,3837.3,4198.5,4465.3,4653.3,4771.4,4837.8,4865.6,4863.3,4853.5,4849.2,4842.5,4831,4822.5,4825.3,4832.1,4804.3,4715.1,4587.7,4439.2,4248.5,4021.5,3801.5,3603.8,3418.1,3257.8,3140,3055.8,2997.6,2967.9,2960,2965.7,2983.8,3006.2,3018.7,3019.9,3022.4,3020.9,2988.7,2922.1,2840.6,2742.5,2624.4,2494.8,2341.6,2162.5,1989.1,1822.7,1639.5,1452.2,1276.7,1099.4,919.79,755.37,602.68,441.68,280.32,145.25,18.559,-129.25,-268.04,-380.34,-502.66,-631.76,-742.93,-860.65,-989.12,-1097,-1195.2,-1301.5,-1396.8,-1485,-1589.4,-1697.5,-1800.4,-1913.6,-2018.7,-2103,-2204.8,-2317.4,-2400,-2488.9,-2608.7,-2712.6,-2808.9,-2927.6,-3038.8,-3145.8,-3268.5,-3378,-3482.5,-3608.2,-3729.5,-3849.1,-3993.2,-4139.1,-4275.1,-4420,-4569.7,-4716.7,-4866,-5016.2,-5165.3,-5310.9,-5450.2,-5580.7,-5688.8,-5768.5,-5818,-5794.6,-5640.3,-5342.6,-4911.8,-4337.3,-3611.2,-2767.3,-1862.4,-927.28,19.009,926.53,1753.6,2502.1,3159.2,3689.5,4103.3,4434.7,4682.3,4847,4959.3,5034.6,5071.7,5088.3,5103.2,5117.8,5138,5178.8,5239,5291.9,5313.8,5303.8,5249.5,5130,4971.7,4801.2,4593.1,4358.9,4151.7,3968.9,3797.8,3659.6,3550.6,3464.2,3409.1,3370.2,3342.8,3337.2,3341.2,3350.2,3356.5,3340.8,3315.1,3280,3211.6,3124.6,3028.6,2903.4,2764.8,2626,2464.2,2283.3,2106.4,1936.7,1766.9,1592,1414.4,1240.4,1081.4,942.84,796.01,632.52,490.04,360.15,217.6,88.045,-35.176,-172.34,-294.33,-410.3,-539.04,-646.03,-749.06,-879.02,-991.04,-1085.5,-1202.1,-1312.1,-1406,-1515.8,-1624.5,-1720.9,-1828.5,-1936.6,-2030.6,-2130.7,-2245.4,-2360.1,-2471.2,-2583.3,-2686.9,-2782.1,-2894,-3020.2,-3132.3,-3242.2,-3366.5,-3485.2,-3595.2,-3707.4,-3820.3,-3948.1,-4091.3,-4220.9,-4337.5,-4457.4,-4581.8,-4721.5,-4874.2,-5016.4,-5152.8,-5294.2,-5430.4,-5566.8,-5710.8,-5841.8,-5950.1,-6051.9,-6143.4,-6184.9,-6139.2,-5984.9,-5694.1,-5243.8,-4636.6,-3888.2,-3029.5,-2103.1,-1137.2,-163.9,764.09,1613.8,2379.9,3050.9,3606.8,4041.8,4377.4,4637.1,4825.3,4953.4,5043,5103.9,5145.8,5182.3,5222.6,5279.5,5350.5,5419.7,5486.9,5541.7,5559.8,5536.4,5466.6,5341.2,5169.4,4964.5,4746.1,4534.3,4328.4,4145,4004,3881,3777.5,3726.2,3700.7,3674.2,3671.4,3686.7,3699.2,3715.3,3717.6,3691.6,3661.6,3622.4,3547.3,3451.5,3350.6,3229.1,3086.8,2937.2,2778.5,2618.1,2468.7,2311.5,2138.4,1983.3,1849.3,1701.7,1547.2,1406.3,1268,1134,1007.3,866.07,721.82,598.53,469.99,326.99,204.01,96.904,-21,-142.06,-255.79,-364.36,-470.36,-583.06,-697.21,-794.96,-886.98,-994.84,-1111.7,-1215.9,-1305.1,-1408.1,-1535.6,-1650.7,-1744.2,-1851.5,-1966.2,-2062.9,-2162,-2277.2,-2391,-2501.2,-2615.4,-2737.3,-2870,-2999.5,-3117.9,-3247.4,-3392.5,-3537.2,-3687.7,-3847,-4000.2,-4146.2,-4290.3,-4435.8,-4586.9,-4730.5,-4859,-4986.7,-5102.7,-5176.5,-5190.5,-5114.7,-4923.7,-4619.5,-4187.9,-3619.5,-2954.3,-2221.9,-1423.4,-591.81,218.28,976.59,1669.2,2276,2778.4,3183.9,3511.8,3759.5,3925,4035.3,4110.1,4147.8,4162.6,4177.5,4194,4212.3,4242.7,4277.5,4302.3,4315.7,4302.5,4238.1,4127.7,3988.3,3816.9,3613.6,3405.4,3223,3063.7,2909.9,2781.3,2699.8,2643.7,2603.2,2595.1,2604.4,2611.4,2628.1,2652.6,2665.9,2666.8,2655.3,2621.4,2564.7,2494.4,2411.2,2309.2,2190.3,2059.5,1916.1,1769.2,1629.4,1486.1,1334,1186.8,1044.4,898.59,753.51,606.12,456.44,323.61,200.36,60.009,-78.36,-190.74,-303.09,-426.6,-541.45,-652.58,-764.01,-865.28,-967.13,-1072.4,-1166.9,-1253.2,-1337.6,-1429.7,-1531.4,-1614,-1685.3,-1778.3,-1867.7,-1945.2,-2044.5,-2141.9,-2221,-2317.6,-2419.1,-2505.1,-2604.4,-2720.5,-2834.4,-2942.9,-3046,-3151.7,-3253.7,-3346.7,-3463.7,-3597.2,-3700,-3795.1,-3914.2,-4027,-4129.1,-4243.1,-4357.9,-4465.3,-4578.3,-4700.3,-4828.6,-4959.8,-5088.4,-5210.9,-5327.7,-5440.6,-5548,-5647.9,-5738.9,-5813.2,-5858.3,-5848.7,-5742.6,-5519.4,-5178.3,-4705.4,-4111.7,-3440.5,-2704.2,-1902.8,-1072.9,-260.27,498.72,1181.6,1791.2,2322.2,2759.9,3117.5,3409.4,3636.4,3811.3,3944.2,4041,4116.2,4171.4,4215.9,4282.2,4365.7,4438.7,4509,4577.3,4614.3,4615.9,4587.9,4512.8,4394,4252.8,4080.6,3886.7,3719.6,3577.1,3426.4,3293,3201.5,3131,3078.5,3042.7,3012.9,3012,3032.3,3028,3015.4,3019.2,3004.2,2961.2,2911.9,2848.2,2766,2672.8,2571.6,2468.4,2348.2,2202.5,2066.7,1940.3,1790.6,1641.3,1510.7,1369.7,1225.4,1102.5,985.11,856.89,722.55,595.81,482.19,361.02,233.47,126.76,21.319,-98.59,-195,-275.87,-382.02,-486.21,-562.97,-646.26,-743,-826.34,-904.98,-997.73,-1086.5,-1156.6,-1230.1,-1318.2,-1403,-1484.2,-1577.3,-1678.9,-1778,-1869.2,-1958.3,-2066.7,-2193.2,-2302.8,-2390.9,-2494.7,-2621.2,-2735.6,-2832.6,-2937.2,-3047,-3156.2,-3275.8,-3385,-3469.4,-3567.5,-3684.6,-3785.9,-3878.8,-3977.7,-4070.2,-4162.7,-4261.8,-4356.4,-4456.5,-4572.3,-4681.1,-4772.8,-4874.6,-4997.3,-5113,-5214.1,-5318.3,-5412.8,-5484.6,-5547.6,-5579.3,-5526,-5367,-5099.2,-4717.4,-4226.9,-3632.3,-2948.8,-2210.7,-1443.4,-668.19,80.524,776.57,1404.3,1946.9,2400.7,2774.8,3073.7,3301.3,3469.9,3593.4,3681.9,3744,3787.4,3816,3841.8,3885.3,3941.2,3984.6,4021.5,4059.8,4069.1,4034.8,3966.6,3856.7,3714.1,3558.7,3381.7,3206.9,3077.3,2963.8,2843.9,2759.2,2712,2677.1,2664.6,2665.6,2662,2671.2,2692.5,2708,2722,2722.2,2685.8,2627.6,2567.4,2496.6,2401.1,2279,2148.5,2028.3,1908.3,1777.5,1643,1500.7,1354.4,1226.6,1104.2,963.21,825.01,699.64,565.91,429.93,304.27,180.25,58.179,-61.762,-187.25,-314.07,-436.95,-551.26,-653.36,-754.95,-859.11,-957.41,-1054.3,-1149,-1242.4,-1346.5,-1446.8,-1530.9,-1621,-1717.7,-1809.7,-1907.5,-2001.4,-2079.6,-2165.6,-2265.8,-2364.2,-2463.4,-2563.9,-2659.6,-2759.6,-2868.2,-2979.9,-3095,-3210.3,-3324.2,-3446.3,-3575.1,-3697.8,-3820.6,-3958.4,-4104.5,-4244.3,-4378.8,-4508.5,-4626.4,-4739.5,-4858.5,-4975.4,-5080.5,-5167.7,-5214.3,-5191.6,-5078.3,-4851.7,-4500.9,-4034.9,-3462.8,-2796.6,-2063.9,-1293.8,-509.92,258.88,983.78,1647.1,2233.9,2726.3,3126,3454.1,3719,3919.1,4062.2,4158.5,4232,4305.7,4362.7,4398.5,4451.3,4516,4556.1,4584.9,4614.5,4618.9,4583.4,4506.5,4386.4,4229.9,4044.3,3853.6,3680.6,3510.1,3345.6,3219.8,3122.5,3038.4,2986.8,2961.2,2945.2,2949.8,2971.5,2994.7,3011.9,3013.1,3002.7,2982.1,2930.7,2855.6,2777.6,2683.1,2565.8,2436.1,2295.1,2152.6,2008.3,1847.8,1687.3,1537.5,1380.3,1221.3,1069.4,915.49,767.76,625.5,473.9,328.33,197.8,67.059,-61.049,-186.53,-318.12,-442.36,-556.02,-670.9,-779.89,-881.98,-984.51,-1080.2,-1172.4,-1266.3,-1351.8,-1437.8,-1537.3,-1637.2,-1735,-1835.8,-1932.3,-2029.8,-2132.1,-2231.9,-2337.7,-2450.1,-2557.8,-2671.4,-2792.5,-2907.6,-3024.6,-3140.9,-3247.5,-3368.6,-3503.6,-3621.1,-3733.6,-3857.2,-3974.4,-4093,-4220.1,-4331,-4436.2,-4565.5,-4701.6,-4822.3,-4942,-5074.1,-5210.9,-5341.2,-5466.7,-5593.9,-5719.3,-5842.8,-5968.7,-6087.1,-6188,-6264.8,-6290.4,-6226.8,-6044,-5727.8,-5288.1,-4730.7,-4045.9,-3256.4,-2408,-1522.6,-626.57,230.84,1025.6,1753.7,2387.5,2909.8,3344.6,3699.1,3958.6,4156,4322.6,4432.1,4496.4,4565.9,4623.2,4652.4,4703,4785.2,4865,4940.4,5008.9,5053.5,5063.7,5017.1,4910.9,4775.5,4615.4,4424,4229.9,4053.7,3890.2,3746.4,3630.2,3532.2,3455.6,3416.8,3408.3,3401.6,3390.7,3393.6,3404.3,3394.2,3360.7,3317.9,3261.5,3188.1,3107.7,3015.3,2896.4,2756.8,2615.3,2472,2310.9,2138.4,1980.1,1830.9,1670.8,1507.3,1348.6,1190.8,1039.8,891.72,735.88,586,451.65,318.95,184.12,53.968,-74.747,-204.86,-329.89,-446.82,-560.87,-672.01,-775.43,-874.72,-973.41,-1070.4,-1166.8,-1258.2,-1346.3,-1442.6,-1540.4,-1636.8,-1747.2,-1854.3,-1940.1,-2037.7,-2152.4,-2251.5,-2351.2,-2467.4,-2569.3,-2664.6,-2786.5,-2913.2,-3016.5,-3114.8,-3226,-3344,-3460.3,-3573.9,-3691.6,-3815.7,-3938.7,-4061.4,-4193.8,-4335.8,-4475,-4607.7,-4747.7,-4896.1,-5028.5,-5140.8,-5258.4,-5380.3,-5489,-5587.3,-5653.6,-5635.2,-5515,-5293.9,-4943.7,-4452.8,-3841.9,-3124,-2318.5,-1460,-574.94,299.18,1116.1,1859.2,2518.5,3072.3,3524.6,3891.7,4170.2,4368.5,4508.5,4595.2,4640.7,4670.2,4683.6,4678.9,4683.8,4707.6,4729.7,4745.6,4754.7,4733.1,4663.4,4548.7,4391.9,4196.3,3982.2,3775.6,3577.8,3384.5,3220.9,3096.9,2990.9,2914.1,2882.9,2864.1,2846,2855.1,2882.8,2902.4,2910,2905.7,2886.2,2846.8,2784.3,2705.5,2612.1,2493.4,2345.2,2183.3,2028.6,1863.5,1665.8,1472.5,1303.8,1124,942.52,780.4,602.3,415.38,259.74,111.17,-46.374,-189.43,-328.39,-474.83,-616.09,-754.81,-888.11,-1004.3,-1114.1,-1228.4,-1342.3,-1448.8,-1549.9,-1655.6,-1761.7,-1860.5,-1960.8,-2059,-2153.5,-2259.9,-2358.5,-2435.6,-2529.1,-2637.4,-2734.4,-2840.6,-2950.6,-3045.1,-3156,-3281.2,-3388.5,-3502.7,-3642.2,-3786,-3928.1,-4071.3,-4223.5,-4386.8,-4540.3,-4691.4,-4855.8,-5010.9,-5155.6,-5300.7,-5428.1,-5546.7,-5655.3,-5701.3,-5669.6,-5557.7,-5312.1,-4909.8,-4371.7,-3705.4,-2932.2,-2089,-1198.2,-287.86,591.36,1391.2,2101.4,2729.7,3260.2,3689.5,4034.7,4288.5,4458.9,4580.4,4658.9,4706.1,4749.5,4784.7,4816.8,4864.6,4915.4,4964.1,5013.9,5035.9,5012.3,4947.5,4832.9,4665,4459.8,4236.1,4005.9,3780.8,3577.1,3395,3232.4,3115.7,3045.9,2985.9,2939.5,2928.6,2936.8,2942.8,2939.1,2927.6,2914.3,2883.4,2820,2735.4,2635.2,2519.7,2390.9,2246.4,2096.1,1941.7,1772.7,1600.6,1427.6,1248,1083.1,924.26,745.78,574.03,421.14,260.73,99.765,-51.283,-204.11,-353.08,-495.97,-642.81,-787.32,-922.19,-1050.3,-1175.4,-1298,-1411.5,-1521.2,-1636.2,-1740.5,-1834.1,-1943.3,-2059.3,-2156.9,-2248.9,-2353.3,-2461.2,-2559.1,-2648.6,-2747.3,-2861.3,-2968.6,-3064.2,-3174.6,-3299.5,-3416.3,-3532.8,-3659.7,-3783.6,-3907.9,-4046.3,-4191,-4341.1,-4502.5,-4661.1,-4814.3,-4975.5,-5134.1,-5277.9,-5418.3,-5558.5,-5689.7,-5806.6,-5897.5,-5944,-5918.8,-5777.8,-5497.9,-5084.7,-4530.5,-3839.4,-3045.2,-2165,-1232.3,-316.83,556.23,1378.5,2102,2717.2,3241.8,3656.2,3965.4,4201.4,4372.9,4501.3,4600.9,4663,4716.9,4786.6,4852.4,4918.9,4999.3,5073.7,5127.9,5157.3,5148.5,5083.3,4948.8,4762.9,4552.8,4322,4080.3,3846.1,3631.3,3447.2,3291.5,3168.6,3092.8,3046.2,3019.9,3021.6,3019.2,3008,3018.6,3016.6,2981.8,2947.2,2892.5,2803.9,2717.4,2616.3,2479,2333.5,2179.7,2011,1849.9,1695.5,1536.6,1372.9,1201.4,1029.1,865.35,713.69,575.12,432.38,280.74,136.72,-7.2829,-151.29,-278.18,-405.84,-537.6,-645.19,-746.81,-867.67,-986.26,-1090.9,-1188.9,-1283.7,-1382.1,-1475.9,-1555.6,-1639.3,-1736.7,-1829.4,-1906.3,-1982.3,-2074.1,-2168,-2249.1,-2336.4,-2436.4,-2534.8,-2641.3,-2761.1,-2877.2,-2995.3,-3132.6,-3280.8,-3428.2,-3578.1,-3732.9,-3881.1,-4017.4,-4154.9,-4297.1,-4434.1,-4563.3,-4681.8,-4792.2,-4900.6,-4971.2,-4945.4,-4807,-4557.4,-4179,-3664,-3019.9,-2262.3,-1435.8,-590.67,252.7,1070.3,1816.5,2465.5,3014.1,3457.8,3805.1,4071.4,4262.7,4390.9,4469.5,4510,4537.5,4562.6,4573.8,4586.8,4621.5,4654.6,4663.1,4649.1,4600.3,4492.9,4326.7,4119.8,3888.4,3640.5,3382.7,3133.4,2916.9,2741.2,2602.4,2500.8,2433,2396.5,2392.1,2402.1,2412.9,2436.9,2467.5,2480.1,2474.2,2446.1,2384.4,2303.7,2213.7,2103.1,1973.4,1831.2,1674.4,1508.2,1340.6,1176.4,1015.7,847.76,672.03,509.11,361.57,204.98,40.399,-105.48,-240.75,-386.46,-526.14,-656.62,-801,-946.12,-1073.6,-1193.1,-1300.6,-1403.4,-1523.1,-1631.2,-1711.4,-1810.5,-1930.2,-2027.9,-2115.3,-2212.2,-2301.4,-2385.3,-2479.7,-2576.7,-2666.1,-2748.2,-2832.5,-2931.7,-3033.1,-3122.6,-3223.4,-3342.3,-3451.8,-3556.3,-3674.9,-3796.9,-3920.9,-4056.1,-4191.9,-4327.5,-4474.1,-4628.1,-4782,-4926.4,-5060.5,-5197.2,-5327,-5434.6,-5538.5,-5643.3,-5719.5,-5741.2,-5686.3,-5530.8,-5243.5,-4790.2,-4187.3,-3474.9,-2650.2,-1738.8,-818.33,81.569,954.06,1748.2,2431.4,3012.6,3494.7,3874.4,4155.6,4358,4512.7,4628.5,4706.1,4765.9,4822.4,4877.1,4938.4,5012,5093.9,5167.1,5204.4,5198.6,5154.4,5058,4901.7,4692.5,4435.2,4159.5,3904.6,3671.1,3454.7,3272.5,3130.8,3029.9,2968.6,2933.7,2924.1,2936.3,2944.7,2946.8,2953,2939.8,2896.6,2846.1,2784.5,2693.9,2580.5,2452.3,2313.7,2176.9,2034.2,1865.1,1683.6,1516.9,1357.7,1194.5,1036.6,881.13,723.12,571.8,423.45,273.86,133.52,-0.33761,-134.64,-269.17,-409.1,-546.16,-671.04,-796.63,-920.29,-1030.8,-1140.5,-1249.8,-1347.4,-1444.2,-1545,-1642.4,-1735.4,-1823.2,-1912,-2009.9,-2110.6,-2208,-2301.3,-2390.7,-2487.1,-2586.8,-2673.6,-2766.3,-2884.7,-3003.6,-3109.4,-3221.8,-3340.2,-3453.6,-3573.7,-3702.1,-3827.1,-3956.6,-4097.6,-4241.2,-4386.6,-4531.7,-4671.3,-4815.8,-4961.3,-5088.9,-5210,-5337.9,-5459.7,-5570.6,-5668.4,-5737.6,-5763.1,-5715,-5554.9,-5263.3,-4827.5,-4244.9,-3536,-2720.2,-1827.7,-913.96,-16.02,849.63,1650.1,2353.2,2946.5,3430.8,3822.6,4130.9,4340.7,4467,4569.3,4667.5,4735.2,4786.2,4853.5,4925,4997.3,5087.7,5167.6,5205.3,5209.5,5168.1,5064.7,4913.3,4707,4451.8,4196.8,3950.7,3706,3496.2,3325.4,3180.1,3083,3030.1,2996,2987.6,2996.9,3007.2,3028.1,3047.1,3038.4,3005.6,2955.1,2886.6,2798.6,2681.4,2541.5,2401.5,2261,2101.5,1928.5,1769.6,1615.4,1437.1,1265.2,1129.2,987.28,825.08,678.54,546.01,411.4,275.89,137.69,4.2899,-123.19,-248.7,-356.71,-460.69,-582.91,-692.09,-780.37,-881.88,-989.06,-1087.1,-1181.9,-1260.7,-1330.1,-1414,-1498.3,-1572.5,-1654.2,-1745.4,-1837.3,-1924,-2001.5,-2082.5,-2177.5,-2269.4,-2346.8,-2429.2,-2539,-2662.9,-2767.7,-2856.6,-2960.3,-3080.5,-3199.8,-3312.3,-3422.1,-3546.5,-3690.3,-3827.1,-3954,-4094.6,-4239.1,-4369.9,-4498.1,-4626.8,-4746.7,-4860.2,-4971.4,-5074.6,-5160.5,-5225.3,-5256.4,-5211.2,-5050.8,-4761.9,-4327.7,-3749,-3057.4,-2272.4,-1414.6,-522.69,364.71,1197.1,1944.5,2613.2,3180.7,3627.7,3982.4,4248.6,4424.7,4550.5,4637.3,4679.4,4704.6,4734.4,4775.1,4822.5,4854.8,4876.5,4899.2,4901.6,4869.6,4788.2,4634.2,4427.5,4195.8,3945.7,3705.3,3485.3,3272.1,3093.1,2970.1,2879.7,2816.6,2787.4,2779.4,2794.7,2831,2858.9,2872.9,2880.7,2862.2,2816.3,2764.9,2690,2572.7,2442.9,2312.7,2164.9,2008.8,1850,1673.9,1494.9,1325.9,1152.1,986.1,846.69,710.1,566.11,428.28,283.82,129.49,-9.6968,-137.15,-268.59,-391.65,-503.36,-618.98,-735.42,-842.53,-943.98,-1042.8,-1134,-1220.6,-1317,-1418.5,-1504.7,-1592.3,-1697.9,-1785,-1851,-1940.9,-2040.6,-2126.3,-2228.1,-2338,-2428.1,-2523.4,-2635.3,-2751,-2870.2,-2975,-3071.4,-3193,-3309.8,-3399.8,-3511.4,-3639.3,-3741,-3846,-3975.2,-4097,-4207,-4317.3,-4429.2,-4550.5,-4675.2,-4799.5,-4939.4,-5079.2,-5200.1,-5326.5,-5451.8,-5551.1,-5655.8,-5768.7,-5848,-5909.4,-5954.1,-5914,-5767.5,-5510.3,-5088.5,-4499.3,-3788.4,-2964,-2047.9,-1093.7,-137.98,783.73,1634.1,2389.5,3033.7,3569.7,4004,4333.2,4576.9,4762.3,4898,4998,5074.5,5136,5204.6,5290.1,5386.7,5491.2,5590.5,5676.9,5746.8,5767.3,5716.2,5612.1,5455.2,5237.4,4989.9,4745.2,4508.8,4288.1,4090.6,3917.6,3779.4,3685.2,3628.4,3606.1,3616.4,3636.4,3649.8,3664.8,3670.9,3646,3604.7,3563.5,3495.3,3383.6,3258.4,3134.8,2992.4,2834.4,2684.9,2535.7,2369.1,2195.7,2027.6,1866.7,1714.2,1563.3,1413,1274.5,1144,1009.3,867.43,721.69,589.85,476.28,351.24,216.14,102.28,-7.2481,-131.8,-244.14,-343.33,-451.15,-556.83,-658.75,-768.31,-867.98,-952.04,-1044.4,-1149.3,-1250.9,-1345.2,-1441.6,-1544.1,-1647.3,-1756.1,-1874,-1985.6,-2094.8,-2215.6,-2328.2,-2434.6,-2572.6,-2722.6,-2839.1,-2944.1,-3069.2,-3199.7,-3327,-3456.3,-3575.5,-3682,-3791,-3907.8,-4029,-4147.2,-4254.6,-4359.9,-4471.6,-4578.2,-4679.4,-4788.7,-4903.8,-5020.4,-5141.2,-5262.6,-5385.7,-5515.4,-5644.3,-5769.6,-5894.3,-6009.5,-6112,-6213.4,-6306.4,-6368.3,-6392.2,-6350.9,-6187.8,-5884.3,-5439.3,-4824.2,-4056.1,-3195.6,-2255,-1254.1,-263.15,680.24,1557,2326.8,2980.9,3533.7,3983.4,4326.6,4568.5,4741.1,4880.4,4978.3,5042.4,5114.1,5186.1,5248.4,5337,5447.6,5548.4,5639.1,5703.9,5719.3,5691,5607.7,5449.3,5234.7,4996.5,4749.9,4499.4,4257.6,4052.4,3891.6,3764,3677,3631.9,3609.5,3604,3611.3,3619.8,3626.7,3623.1,3602,3569.5,3519.9,3451.5,3371.2,3265.8,3133.8,2996.7,2856.4,2706.2,2546.1,2376.1,2208.6,2046.3,1881.1,1725.4,1578.3,1427.2,1285.3,1147.9,1004,878.99,763.57,628.98,502.16,393.01,276.6,165.09,65.029,-40.127,-141.21,-234.01,-325.5,-410.36,-500.8,-603.71,-697.9,-781.59,-863.72,-948.17,-1050.8,-1159.2,-1249.8,-1345.9,-1457.9,-1564.6,-1673.2,-1786,-1894.2,-2018.1,-2148.8,-2262,-2380.6,-2509.4,-2629.3,-2751.7,-2872.2,-2985.4,-3110.9,-3225.3,-3318.3,-3434.7,-3558.4,-3657.9,-3771.5,-3893.7,-3985.5,-4080.9,-4205.6,-4330,-4442.7,-4555.9,-4684.4,-4824.9,-4951.2,-5071.5,-5205.7,-5328.5,-5437.1,-5557.6,-5671.4,-5763.1,-5842.3,-5876.9,-5829,-5685.8,-5405,-4955.1,-4357.2,-3626.5,-2776.9,-1854.7,-894.84,80.005,1025.3,1898.2,2669.2,3319,3852.1,4278.8,4601.7,4830.1,4977.6,5066.4,5128.2,5181.5,5228.4,5262.2,5287.6,5330.8,5390.4,5440.1,5486.9,5525.9,5519,5461.9,5352.3,5174,4958.4,4730.3,4485,4256.5,4059.8,3877,3740.1,3657.1,3581.1,3529.4,3532.7,3550.3,3559.6,3576.2,3593.1,3600.8,3597.1,3573.2,3532,3473.1,3385.1,3277.6,3161.9,3028.3,2881.9,2734.4,2571.4,2394.5,2229.4,2068.3,1895,1728.1,1573.2,1413.1,1249.5,1092.2,945.87,811.45,679.62,546.11,413.4,284.24,169.94,59.576,-70.376,-195.55,-292.46,-384.37,-478.24,-571.44,-679.01,-784.41,-869.06,-957.05,-1055.7,-1144.5,-1224,-1309.8,-1412.1,-1522.3,-1621.1,-1714.8,-1818.3,-1924.8,-2033.9,-2151,-2261.7,-2367.2,-2490,-2622.7,-2745,-2866.8,-2994.6,-3114.9,-3235.1,-3365.4,-3491.5,-3612.2,-3739.5,-3865.7,-3987.2,-4109.1,-4217.1,-4309,-4412.8,-4531.3,-4639.1,-4736.6,-4836.9,-4929.2,-5014.7,-5118.4,-5233.5,-5336.4,-5443.5,-5567.3,-5683.4,-5793.6,-5919.3,-6046,-6161.1,-6280.3,-6398.5,-6495.1,-6569.3,-6615.8,-6601,-6473.7,-6189.8,-5739.9,-5132.8,-4370.6,-3471.4,-2479.5,-1441.7,-394.8,636.27,1610.7,2469.9,3202.8,3830.2,4332.2,4698,4966.9,5158.6,5272.5,5336.5,5379.3,5406.8,5422.9,5442.2,5480.1,5538.6,5612.5,5693.8,5766.4,5820.5,5846,5817.9,5727.8,5583.3,5383.8,5140.9,4885.9,4648.9,4441.4,4249.7,4079.4,3960.1,3878.5,3813.9,3785,3784.1,3788.1,3804.9,3823.8,3826.5,3820.7,3801.3,3761.9,3710.7,3636.3,3535.7,3419.7,3276.8,3112.5,2947.7,2772.3,2586.4,2407.5,2220.7,2016.7,1823.8,1653.7,1488.5,1319.3,1154.1,994.17,828.68,669.09,534.8,402.39,255.57,124.72,9.3892,-116.94,-240.83,-356.13,-475.34,-583.99,-684.35,-792.47,-892.83,-991.65,-1105.6,-1209.3,-1301.9,-1404.1,-1500.4,-1597.6,-1713.7,-1821.3,-1918.3,-2029.1,-2137,-2238.1,-2360.9,-2498.7,-2622.2,-2733,-2852.4,-2981.2,-3106.1,-3230.9,-3359,-3487.1,-3624.8,-3756.8,-3867.5,-3993.5,-4132.8,-4245.9,-4365,-4508,-4628.1,-4734.5,-4857.9,-4980.1,-5105.4,-5246.9,-5389.8,-5528.4,-5659.4,-5788.9,-5933.6,-6069.2,-6182.8,-6304.2,-6421.3,-6509.2,-6575.4,-6592.1,-6513.6,-6301.9,-5904.6,-5330.3,-4635.4,-3808.6,-2849.2,-1833.3,-804.98,217.62,1178.5,2045.6,2811.9,3448.4,3952.7,4352.6,4650,4843.1,4957.1,5018.2,5040.5,5033.1,5013.3,5004,5002.7,4999.1,5013.2,5050.5,5078.1,5081.4,5059.4,4986.4,4849.6,4670.4,4469.3,4248.9,4012.6,3786.3,3590.5,3421.2,3289.6,3204.8,3140,3093.2,3080.9,3082.4,3092.6,3120.3,3132.3,3121.2,3114.9,3101.5,3062.7,2997.3,2902.6,2801.4,2696.6,2553,2388.6,2233.3,2062,1879,1706.6,1521.9,1327.4,1144.2,956.88,774.18,614.23,443.81,259.2,99.883,-46.298,-207.27,-364.69,-507.82,-650.37,-788.98,-916.28,-1040.6,-1162.5,-1274,-1384.8,-1505.8,-1623.5,-1727.4,-1829.3,-1937.6,-2051.2,-2163,-2260.1,-2351,-2459,-2570.9,-2667.4,-2769.7,-2885.4,-2993.3,-3100.8,-3216.9,-3323.7,-3434.7,-3573.4,-3712.2,-3834.4,-3965.1,-4109.9,-4259.7,-4419.6,-4586.1,-4753.4,-4920.8,-5081.8,-5240.8,-5400.3,-5546.2,-5683.5,-5819.4,-5927.3,-5981.8,-5960.3,-5816.4,-5523.2,-5086.9,-4501.4,-3758.1,-2885.9,-1942.7,-973.69,4.8798,963.5,1844.9,2616.5,3277.1,3818.7,4241.7,4561.6,4784.6,4925,5009.3,5042.8,5034.3,5020.7,5017.7,5013,5013.4,5031.2,5053.7,5066,5061.3,5026.1,4945.8,4813.6,4633,4415.6,4175.5,3929.8,3697,3485.3,3297.4,3135.8,3003.4,2909.4,2850.9,2808.4,2787.6,2796.7,2804.6,2799.8,2802.7,2800.9,2779.3,2749.4,2699.6,2618.2,2519.2,2401.7,2266,2121.2,1955.5,1773.4,1596.9,1418,1228.6,1038.6,852.01,676.56,507.54,327.73,158.38,13.89,-140.39,-304.55,-446.02,-578.94,-721.46,-859.53,-994.69,-1128.1,-1244.6,-1360,-1492,-1614.8,-1718.4,-1827.2,-1940.2,-2045.2,-2150.5,-2253.1,-2346.5,-2445.5,-2552.8,-2655.6,-2759.7,-2869.1,-2967.2,-3055.5,-3152.4,-3252.8,-3350.7,-3457.7,-3566.3,-3667.5,-3779.9,-3900.7,-4012.4,-4132.6,-4266.7,-4393.8,-4523.1,-4664.7,-4805.3,-4948.5,-5101.5,-5255.9,-5407.5,-5553.9,-5694.9,-5831.1,-5948.6,-6044.3,-6128.8,-6181.6,-6151.4,-5989.8,-5674.6,-5205.2,-4568.7,-3765,-2845.8,-1860.2,-830.54,203.13,1196.6,2115.2,2919.9,3603.7,4186.7,4661.1,5013.9,5267.3,5449.5,5574.2,5655,5703.1,5729.3,5757.7,5805.1,5858.6,5910.5,5972.4,6039,6087.4,6096.2,6043.6,5929.2,5776,5589,5363.3,5125.2,4903.3,4693.3,4498.8,4345.2,4226.5,4120.9,4046.8,4017.1,4002.8,3990.2,3988.9,3994.3,3996,3988.9,3972.6,3943.8,3889.2,3810.3,3712.3,3584.2,3445.6,3315.1,3158.4,2979.6,2817.4,2647.8,2461.9,2298.4,2139.7,1961.9,1796.2,1645.2,1487.9,1334.4,1190.6,1046.8,904.8,774.68,654.38,522.6,378.9,253.41,142.68,19.92,-104.84,-217.08,-327.87,-443,-557.39,-664,-761.94,-863.09,-966.91,-1062.5,-1159.9,-1263.5,-1354.2,-1438.5,-1542.4,-1659.6,-1769.6,-1875.4,-1985,-2099.6,-2224.1,-2357.2,-2487.5,-2616.5,-2756.6,-2908.6,-3065.4,-3225,-3384.3,-3540.3,-3698.3,-3862.3,-4024.9,-4175.1,-4313,-4451.5,-4592,-4704.7,-4755.6,-4732.1,-4616.1,-4374.5,-3994.3,-3484.2,-2858.3,-2141.5,-1361.8,-544.94,266.28,1029.2,1734.2,2380.1,2939.3,3384.3,3722.3,3976.7,4161,4287.6,4368.7,4406,4414.6,4423.1,4431.5,4431.4,4442.9,4469,4480,4465.2,4424.9,4338.8,4202.7,4035.6,3843.7,3629.6,3406.4,3188.4,2997.1,2844,2714.2,2607.7,2541.4,2499.8,2466.5,2461.2,2482.4,2498.8,2509,2521.9,2520.8,2499.8,2469.2,2425.3,2357.7,2264.3,2153,2035.7,1906.3,1761,1617,1469.1,1304,1146.3,999.93,838.27,672.78,516.78,360.41,217.8,89.912,-49.069,-190.5,-322.62,-460.78,-600.35,-728.63,-852.02,-974.92,-1095.5,-1209.4,-1318,-1431.6,-1542.5,-1642.9,-1746.9,-1851.9,-1949.5,-2053.3,-2155.7,-2242.4,-2337.8,-2448.7,-2547.7,-2639.5,-2744.2,-2853.8,-2961.7,-3072,-3180.1,-3292.2,-3420,-3548.7,-3668.4,-3794.3,-3934,-4087.1,-4243.9,-4385.3,-4525.9,-4678.9,-4810.3,-4925.8,-5061.8,-5188.1,-5274.2,-5323.8,-5299.2,-5172.3,-4954.6,-4626.3,-4177,-3638.1,-3024.1,-2351,-1652.5,-949.11,-269.27,355.38,916.05,1399.7,1799.8,2134.7,2411.8,2629.8,2802,2936.5,3037.3,3124.1,3214.2,3300.6,3375.8,3454.6,3541.8,3618.5,3678.2,3715.5,3708.2,3654.7,3566.1,3437.1,3278.4,3114.3,2949.1,2783,2625,2488.4,2382.8,2295.3,2215,2160.7,2138.2,2129.2,2128.3,2130.3,2127.1,2124.7,2117.7,2091.3,2050.5,1998.3,1928.4,1850.4,1768.1,1666.9,1550.2,1432.4,1309.8,1186,1071,944.02,797.82,671.96,566.2,438.54,301.38,181.54,65.524,-45.831,-153.52,-279.68,-403.91,-502.91,-602.09,-706.46,-800.42,-894.51,-991.29,-1080.4,-1165.5,-1254.2,-1348,-1433.8,-1506.2,-1586.2,-1668.5,-1737.7,-1816.4,-1902.8,-1974.3,-2049.3,-2128.7,-2198.3,-2284,-2378.7,-2449.9,-2528.3,-2630.7,-2723,-2812.8,-2921.7,-3028.7,-3124.5,-3224,-3330.8,-3445.8,-3565.7,-3679,-3794.7,-3925.1,-4056.6,-4183.6,-4311.6,-4427.5,-4536.1,-4652.4,-4755.6,-4845.8,-4935.2,-4974.4,-4938,-4847.5,-4666.8,-4370.1,-3991,-3529.9,-2990.6,-2407.9,-1783.4,-1143.4,-543.8,16.472,536.66,984.32,1360.4,1674.2,1927,2133.2,2299.1,2437.7,2568,2679.7,2771.8,2868.1,2974,3080.8,3182.1,3275.7,3361.1,3423.8,3452.9,3452.7,3417.8,3343.1,3232.4,3092.1,2952.4,2830.2,2707.9,2598.8,2519.8,2442.2,2371.3,2343.8,2337.2,2320.9,2315,2327.6,2338.3,2340.5,2335.5,2318.4,2291.3,2257.1,2205.3,2130,2045.9,1963.3,1876.7,1783.3,1676.6,1551.6,1431.4,1333.3,1232.4,1113,994.71,888.44,787.11,688.32,588.56,483.39,379.65,280.9,180.84,84.412,-1.2826,-87.391,-175.69,-251.66,-326.56,-420.42,-515.43,-592.19,-666.62,-749.67,-828.5,-901.2,-979.01,-1058.6,-1134.5,-1216.9,-1302.3,-1375.1,-1448.8,-1532.3,-1605.6,-1677.9,-1769.2,-1856,-1927.4,-2008.5,-2100.7,-2187.3,-2266.2,-2349,-2448.1,-2553.5,-2653,-2755.6,-2859,-2959.4,-3070.9,-3185.9,-3292.1,-3397.5,-3501,-3603.8,-3709.5,-3806.4,-3902.2,-3995.3,-4049.7,-4063.5,-4034.3,-3917.9,-3717.6,-3457.6,-3116,-2699.2,-2230.2,-1703.5,-1155.1,-627.6,-106.43,392.85,824.22,1195.2,1515,1763.8,1959,2123.6,2240.9,2323.5,2412.3,2496.4,2552.2,2605.2,2669.7,2728.6,2786.7,2847.1,2879.7,2861.3,2802.8,2728.3,2639.3,2521.1,2386.2,2256,2127.9,2009.3,1915.2,1840.1,1781.6,1740.9,1714.3,1713.1,1736.1,1755.5,1765.4,1781.2,1800.1,1803.4,1781.9,1754,1730.3,1684.2,1608.7,1529.4,1445.2,1346.5,1242.6,1136.7,1033,931.07,815.94,694.36,579.22,464.02,353.86,246.89,128.83,18.214,-78.385,-188.31,-299.98,-390.1,-477.51,-572.74,-668.6,-766.93,-857.87,-934.31,-1012.4,-1099.4,-1187.9,-1272.5,-1349.8,-1424.2,-1501.7,-1578.1,-1655.5,-1737.4,-1813.4,-1885.9,-1965.9,-2041,-2111.3,-2196.8,-2281.2,-2353.2,-2440.3,-2533.3,-2612.6,-2710.1,-2823.8,-2917.5,-3012.8,-3129.5,-3245.5,-3365.2,-3492.2,-3605.8,-3715.4,-3835,-3947.7,-4046.7,-4145.1,-4242.6,-4305.9,-4296.5,-4213.1,-4066.3,-3846.5,-3543.4,-3155.2,-2701.6,-2214.1,-1689.1,-1131.8,-591.76,-82.228,407.47,840.34,1194.9,1497.1,1757.4,1975.3,2158.8,2307.1,2423.7,2528.8,2637.5,2742.1,2834.8,2930.6,3033.5,3128.9,3213,3269.3,3281.5,3270.7,3237.6,3160.9,3060.8,2952.5,2830,2722.6,2646.5,2571.9,2491.1,2429.7,2405.7,2405.3,2400.5,2401.7,2427.3,2450.4,2457.7,2463.4,2457.5,2436.4,2412.7,2380.4,2340.1,2294,2223.7,2133.9,2043.8,1944.3,1829.9,1716.4,1614.4,1514.7,1395.7,1263.6,1148.5,1043.6,927.77,810.54,698.78,590.1,485.66,376.72,268.35,170.84,69.581,-31.379,-119.27,-212.47,-304.65,-382.72,-474.75,-568.99,-636.91,-715.58,-809.37,-879.67,-953.88,-1053.4,-1142.6,-1217.7,-1294,-1372.3,-1460.2,-1550.1,-1638.9,-1742.6,-1840.9,-1919.1,-2013.4,-2130.4,-2242,-2340.9,-2426.3,-2512.4,-2624.3,-2743.8,-2841.8,-2933.2,-3036.5,-3145,-3253.2,-3364.1,-3475,-3581.7,-3691.8,-3811,-3932.5,-4057,-4184.7,-4304.1,-4424.2,-4553.1,-4662.5,-4747.9,-4840.8,-4930.2,-4976.2,-4960.3,-4864.6,-4679.5,-4413.4,-4055.7,-3602.8,-3087.2,-2521.4,-1901.1,-1262.3,-640.92,-40.973,520.25,1019,1454.3,1826.9,2138,2397.8,2608.6,2776.3,2927.8,3075.2,3204.1,3321.2,3448.4,3576.5,3692,3806.9,3919.1,4012.1,4084,4121.7,4104.1,4039.6,3952.1,3860.4,3763.9,3644.2,3518.5,3420.2,3333,3249,3198.7,3172.1,3145.9,3135.7,3137.2,3134.8,3142.5,3151.9,3139.9,3119.4,3100.7,3071.5,3026.1,2960.4,2878.2,2792.9,2699.4,2589.7,2469.1,2340.9,2217.2,2105.2,1985.7,1857.7,1737,1610.2,1472.6,1346.8,1233.4,1116.5,995.25,880.1,776.61,670.1,550.64,438.72,342.01,243.02,139.07,38.645,-52.787,-138.59,-231.69,-322.18,-396.68,-479.25,-577.14,-664.66,-746.68,-841.08,-935.85,-1017.9,-1100.1,-1199.4,-1300.7,-1385,-1474.2,-1577.9,-1671.7,-1759,-1854.8,-1951.1,-2047.8,-2148.6,-2248.3,-2343.8,-2433.6,-2529.4,-2636.8,-2740.1,-2845.9,-2957.2,-3056.5,-3166.9,-3296.1,-3404.2,-3506.9,-3631.6,-3744.3,-3846.5,-3962.7,-4066.9,-4155.9,-4260.7,-4366.5,-4432.1,-4439.7,-4391.7,-4279.3,-4074.7,-3775.7,-3401.7,-2949.7,-2426.2,-1858.9,-1261,-654.83,-71.278,483.62,990.63,1424.3,1804.7,2136.8,2387.6,2575.6,2740,2871.4,2972.7,3066.5,3144.4,3210.1,3282.6,3354.8,3428,3500.8,3546.6,3567.9,3566.3,3514.5,3431.1,3337.9,3207.3,3058.8,2935,2817.5,2699.5,2606.8,2539.2,2486.1,2437.1,2395.7,2393.2,2420.1,2438.8,2457.7,2477.5,2474.8,2466.6,2464.9,2444,2395,2327,2250.4,2174,2080.2,1958.4,1836,1723.5,1601.1,1461.3,1316.2,1186.2,1070.5,938.69,790.69,658.77,539.62,415.93,295.52,177.51,54.714,-63.851,-176.82,-290.78,-405.33,-517.86,-618.08,-706.48,-803.54,-903.11,-986.86,-1071.9,-1166.9,-1257.4,-1348.1,-1436.4,-1509.4,-1588.3,-1685.5,-1775.9,-1855.7,-1942.1,-2035.9,-2134.4,-2232,-2322.7,-2414.6,-2507.5,-2594.6,-2690,-2795.6,-2891.9,-2985.2,-3087.4,-3184.8,-3274,-3365.5,-3460.4,-3559.1,-3658,-3752.4,-3853.1,-3967,-4087,-4204.5,-4311.3,-4414.6,-4528.6,-4641.2,-4743.4,-4851.3,-4961.6,-5058.4,-5142.9,-5197.5,-5180.6,-5078.2,-4895.7,-4617.3,-4229.9,-3753.4,-3205,-2588.7,-1929.7,-1256.4,-578.9,75.924,671.67,1198.8,1660,2051.4,2370.2,2625.6,2838.2,3019,3167.1,3290.5,3402.4,3511.5,3621,3727.5,3837.4,3958.7,4072.1,4159.6,4227,4262.8,4246.5,4194.9,4125.6,4024.7,3896.5,3768,3640.5,3513.7,3404.1,3305,3216.8,3165.1,3132.3,3095.4,3082.6,3090,3089.5,3099.1,3108.6,3082.8,3054.4,3042.5,2994.5,2905.3,2821.6,2735,2617.9,2488.1,2358.5,2218.5,2077.2,1938.5,1789.5,1642.5,1507,1366.7,1226.4,1091.7,949.4,813.28,689.71,557.47,428.29,313.31,189.82,66.383,-40.805,-153.33,-269.12,-366.34,-459.88,-560.69,-654.84,-748.87,-853.36,-951.56,-1033,-1111.9,-1202.2,-1302.4,-1398.1,-1484.3,-1578.5,-1684,-1782,-1876.3,-1981.1,-2086.8,-2186.9,-2289.2,-2395.5,-2506.5,-2621.5,-2728.6,-2823.2,-2919.9,-3028.4,-3136.5,-3238.1,-3345.9,-3455.7,-3556.2,-3665.5,-3783.2,-3885.4,-3991.9,-4120.6,-4238.8,-4347.8,-4477.7,-4602.3,-4703.8,-4819.1,-4949.3,-5064.3,-5166.2,-5256,-5323.9,-5359.2,-5314.1,-5155.2,-4905.8,-4563,-4109.2,-3571.9,-2958.5,-2266.6,-1545.3,-824.07,-104.17,574.94,1177.8,1700.1,2143.6,2522.6,2833.5,3062.3,3236.9,3382.1,3499.3,3608,3711.6,3798,3883.9,3976.3,4066.3,4154.6,4225.7,4269.9,4300,4302.2,4259.5,4187.9,4091.8,3961.9,3815.5,3682.1,3565.4,3447.6,3331.4,3241.4,3183,3146.2,3123.4,3108.6,3111.5,3135.7,3154.5,3159,3160.6,3147.5,3116.8,3084.4,3037.2,2955.6,2854.1,2751.6,2643.4,2516.7,2374.9,2232.5,2092.5,1950.8,1806.2,1656.7,1512,1382.3,1253.3,1116.1,980.74,848.16,720.93,602.73,475.09,336.09,211.42,101.88,-5.6267,-107.17,-203.97,-305.38,-415.7,-529.49,-627.75,-710.48,-801.15,-897.65,-991.39,-1093.3,-1190,-1269.4,-1359.5,-1462.1,-1552.9,-1646.5,-1750.1,-1840.2,-1925.3,-2022.6,-2120.5,-2219.5,-2322.8,-2417.7,-2516.7,-2630.7,-2739,-2845.9,-2967.1,-3081.9,-3189.4,-3315.4,-3451.6,-3580.4,-3704.7,-3826.4,-3946.9,-4066.7,-4184.5,-4300.8,-4404,-4490.1,-4559.3,-4571.8,-4492.4,-4327.7,-4076.1,-3727.3,-3275.8,-2724,-2113.8,-1468.8,-773.93,-73.734,578.33,1189.3,1738.1,2203.7,2609.1,2935.7,3177.7,3378.8,3527,3620.3,3713.9,3796.3,3839.9,3886.8,3950.6,4008.6,4064,4112.6,4144.7,4165.4,4166.2,4128.3,4047,3936.9,3817.3,3689.2,3553.1,3422.1,3300.2,3193.2,3108.1,3035.4,2979.4,2950.5,2927.4,2905.6,2906.5,2914.8,2912.3,2913.5,2910.5,2883,2842.9,2799.3,2743.2,2672,2583.1,2478.2,2368.7,2253.8,2127.4,1995.1,1863.3,1732.3,1600,1467.2,1335.7,1198.7,1061.6,939.82,820.14,690.66,569.7,451.69,319.84,196.7,92.648,-17.099,-135.41,-243.4,-336.86,-429.49,-531.81,-630.71,-716.65,-805.4,-897.57,-981.81,-1069.2,-1160,-1238.5,-1315.8,-1403.5,-1490.1,-1575.5,-1665.5,-1754.4,-1843.9,-1933.7,-2018.4,-2107.6,-2201.8,-2289.8,-2386.5,-2496.7,-2589.9,-2669.4,-2768.1,-2880.1,-2982.8,-3081.8,-3188.9,-3302.7,-3415.3,-3525.6,-3644.4,-3773.9,-3902.2,-4021.6,-4132.8,-4245,-4370.4,-4500.2,-4611.2,-4697.3,-4753.8,-4751.1,-4666.1,-4496.7,-4234.8,-3879,-3442.9,-2930.7,-2358.7,-1756.6,-1134.4,-516.48,57.119,586.14,1066.8,1471.1,1810.4,2103.2,2337.8,2516.8,2651.8,2757.7,2858,2946.1,3014.5,3083.8,3155.2,3227.9,3306.5,3365,3403.9,3439.1,3432.7,3381.5,3329.1,3253.6,3133.8,3013.7,2909.6,2808.2,2714.1,2627.9,2551.2,2493.3,2457.7,2440.3,2421.5,2401.8,2414.6,2439,2430.9,2418.8,2419.4,2399.4,2368.1,2337.4,2284.3,2224.3,2164.6,2072,1967.4,1877.4,1765.7,1636.3,1528.2,1424,1305.8,1187.2,1062.9,934.53,818.31,708.35,592.84,470.71,353.23,252.43,150.47,39.34,-55.751,-147.89,-260.75,-362.25,-442.06,-530.37,-618.14,-692.67,-775.6,-866.8,-947.25,-1016.5,-1083.2,-1157.5,-1238.9,-1310.6,-1370.9,-1436.9,-1516,-1600.2,-1677.9,-1749.8,-1823.8,-1895.7,-1965.6,-2043.2,-2123,-2198.8,-2277.7,-2356.7,-2438.1,-2531.5,-2619.5,-2694.7,-2782.5,-2886.7,-2991.4,-3092.6,-3185.7,-3280,-3387.1,-3485.2,-3569.8,-3665.6,-3759,-3832.7,-3900.5,-3937.1,-3899.7,-3791.2,-3610.1,-3342.3,-3009.6,-2625.3,-2179.2,-1697.6,-1210,-706.47,-199.91,263.57,668.72,1027.4,1342.5,1606.4,1811,1967.2,2099,2208.8,2289.8,2349.6,2397.4,2445.6,2503.5,2558.6,2599.9,2630.1,2646.1,2646.4,2627,2568.1,2473.3,2374.9,2277.6,2170.7,2067.6,1977.3,1894.4,1830.6,1795.2,1770.6,1746.7,1734,1740.9,1766.1,1796.4,1819.2,1840.5,1862.7,1874.4,1876.5,1865.8,1827.8,1774.1,1721.5,1656.4,1572.1,1484.6,1397.8,1301.2,1188.4,1069.6,959.75,848.88,727.78,616.99,515.34,400.23,290.16,199.7,95.886,-23.363,-123.61,-210.96,-307.36,-407.1,-504.59,-599.88,-688.7,-771.02,-850.44,-933.04,-1014,-1082.9,-1159.2,-1250.3,-1322,-1385.7,-1473.9,-1552.4,-1611.4,-1696,-1792.7,-1865.7,-1934.4,-2014.9,-2097.2,-2175.7,-2252.5,-2338.1,-2428,-2509.6,-2596.8,-2691.6,-2777.8,-2866.6,-2966.8,-3070.1,-3180.6,-3295.3,-3407.3,-3521.3,-3633.4,-3744.4,-3857.2,-3960.1,-4065.9,-4184,-4278.1,-4340.4,-4389,-4390.8,-4312,-4155,-3915.7,-3603.8,-3236.9,-2800.3,-2304.5,-1795.2,-1273.5,-729.96,-204.14,272.48,699.25,1066,1374,1642,1863.6,2033.7,2177.9,2302.7,2399.4,2488.4,2585.2,2676,2759.1,2847.6,2937.5,3013.5,3070.5,3108.8,3121.1,3096.8,3042.3,2975.7,2897.4,2799.5,2701.6,2629.3,2568.5,2499.2,2438.6,2398.4,2366.1,2349.5,2359.4,2372.4,2376.7,2394.4,2420.7,2427.1,2419.3,2408.9,2383,2345.4,2305.5,2249,2179.8,2113.1,2030.3,1920.7,1807.1,1696.8,1580.2,1464.6,1359.2,1254,1139.8,1024,908,786.44,668.57,558.66,452.68,354.56,251.44,137.14,40.14,-45.464,-147.53,-244.33,-326.11,-416.21,-505.69,-588.47,-678.6,-765.51,-844.97,-929.73,-1015.7,-1099.8,-1185.2,-1271.4,-1360.4,-1444.8,-1524.2,-1612.2,-1704,-1797.9,-1900,-1991.3,-2076.6,-2184.1,-2290.9,-2374.8,-2464.2,-2567.6,-2663.5,-2754,-2856.5,-2968,-3066.3,-3155.4,-3256,-3350.2,-3431.8,-3534.5,-3645.3,-3740,-3845.5,-3958.5,-4057.3,-4169.2,-4293.7,-4397.5,-4491.7,-4595.4,-4699.9,-4793.6,-4866.7,-4915.8,-4920,-4844.4,-4695.7,-4472.3,-4141.4,-3731.6,-3276.6,-2740.5,-2133,-1510,-884.05,-272.82,295.26,819.06,1283.5,1678.5,2017.3,2292.4,2506.7,2686.2,2839.9,2979.3,3104.7,3203.8,3311.6,3447,3569.4,3681.8,3809.7,3924.5,4008.4,4068.2,4091,4072.6,4021.1,3941.2,3848.5,3755.4,3661.8,3564.5,3463.5,3378.7,3321.9,3268.4,3217.3,3202.7,3215.6,3215.9,3203.6,3206.6,3219.6,3209.4,3178.8,3154.3,3122,3061.3,2986,2901.1,2806,2712.7,2612.3,2499.4,2390.4,2272.7,2136,2011.3,1899.6,1771.3,1635.2,1511.6,1395.5,1274.5,1145,1020.6,905.43,783.95,667.69,565.63,448.78,323.34,221.82,130.71,33.61,-63.138,-160.68,-251.65,-335.82,-430.36,-528.58,-622.75,-718.53,-803.48,-882.71,-976.39,-1069.8,-1157,-1253.5,-1350.2,-1444.7,-1548,-1646.1,-1739.1,-1847.6,-1957.2,-2051.3,-2150.5,-2258.2,-2356.2,-2455.8,-2566.5,-2665.5,-2756.2,-2864.4,-2975.2,-3068.4,-3159.5,-3255.8,-3350.4,-3447.5,-3552.8,-3665.2,-3772.8,-3871.7,-3982.1,-4100.4,-4201,-4301,-4414.9,-4516.3,-4608.5,-4706.8,-4785.3,-4837.1,-4872.8,-4853.6,-4742.2,-4543.6,-4254.6,-3873.4,-3421.3,-2899.7,-2305.3,-1671.2,-1030.3,-393.35,224.46,797.53,1301.8,1738.3,2125.5,2449.2,2692.6,2889,3059.1,3188.6,3294.6,3401.4,3493,3561.5,3634.6,3727.7,3813.8,3867.7,3905.9,3931.6,3914,3852.6,3766.2,3654.9,3531.8,3409.7,3280.2,3158.3,3064.6,2986.9,2916.7,2868.1,2846.3,2835.7,2829.5,2844.3,2870.6,2874.5,2868.4,2869.8,2854.3,2823.2,2785.8,2718.7,2637,2564.7,2470.2,2354,2248.7,2131.7,1991.7,1855.1,1712.2,1555.6,1409.8,1277.5,1147.2,1012.9,870.61,734.92,606.1,468.16,338.24,220.37,91.771,-28.766,-134.83,-259.9,-385.57,-485.1,-587.2,-698.01,-799.7,-898.88,-996.55,-1093.3,-1193.5,-1283.9,-1372.7,-1477.1,-1578.3,-1670.2,-1766.1,-1857.6,-1950.2,-2059.4,-2165.5,-2254.6,-2346,-2450,-2557.6,-2662.9,-2767,-2868.7,-2968.9,-3075.9,-3187.5,-3293.2,-3395.9,-3503,-3616.9,-3736.1,-3853.1,-3975,-4108.9,-4235.5,-4356.2,-4487,-4606,-4712.9,-4836.8,-4956.4,-5053.1,-5146.2,-5213.3,-5219.6,-5167.7,-5039.1,-4801.3,-4457.6,-4020.2,-3496.4,-2899.8,-2244.2,-1545.5,-830.99,-138.09,507.39,1107.3,1655.1,2126.3,2518.2,2837.2,3089.1,3300,3474.2,3598.7,3709.6,3831.4,3936.9,4035,4147.9,4251,4345.2,4443.4,4507.7,4524.9,4515.2,4465.1,4373.9,4258.3,4108.1,3943.3,3804.1,3678.4,3553.2,3446.2,3357.5,3283.8,3231.3,3196.2,3177.6,3174.9,3173.4,3166.2,3164.8,3167.6,3147.5,3098.1,3044.5,2979.4,2886.2,2791.2,2688.5,2545.4,2394.6,2264.1,2120.8,1960.5,1802.9,1647.3,1499.5,1351.5,1189.1,1036.4,898.16,749.17,604.19,472.25,327.94,184.08,60.74,-65.132,-194.51,-307.43,-420.85,-545.94,-661.76,-764.12,-865.84,-968.04,-1065.2,-1157,-1253.2,-1359.5,-1468,-1573.7,-1674.1,-1766.1,-1859.6,-1958.9,-2060.8,-2170.9,-2279.8,-2381,-2493.1,-2604.2,-2699.5,-2809.9,-2930.3,-3033.6,-3147.7,-3275.4,-3383.1,-3489.7,-3610,-3726.9,-3850,-3974.6,-4081.8,-4198.8,-4339.8,-4474.3,-4596,-4724.6,-4862.4,-4990.4,-5101.4,-5216.7,-5340.7,-5449.7,-5541.4,-5611,-5625.6,-5567.7,-5424.3,-5165.8,-4787.3,-4305.7,-3732.2,-3076.8,-2352.2,-1587,-819.63,-71.375,637.58,1280,1847.2,2336.5,2739.4,3063,3329.4,3553.5,3729.8,3854.2,3959.4,4076.7,4197.1,4309.7,4413.1,4507.3,4604.8,4693.8,4742,4760.7,4763.3,4722.8,4631,4503.8,4349.1,4180.6,4009.5,3843.6,3698.3,3572.2,3464.8,3388.1,3327.1,3276.5,3260,3258.4,3241.6,3230.9,3232.6,3215,3171.4,3122.7,3075.9,3004.4,2894.9,2788.5,2695.4,2567,2408.8,2260.8,2109.4,1944.2,1783.1,1626.4,1472.6,1318.6,1156.9,1007.2,873.19,727.87,581.12,451.86,324.53,197.01,77.625,-39.97,-152.18,-260.35,-377.26,-492.9,-597.45,-704.4,-814.42,-910.37,-992.75,-1081.9,-1182.6,-1279.7,-1375,-1478.6,-1577.5,-1668.1,-1763.7,-1860.1,-1953.9,-2050.1,-2144.2,-2241.6,-2348.9,-2448,-2536.9,-2639.2,-2752.7,-2856.6,-2953,-3056.3,-3167.5,-3283.6,-3403.8,-3520.7,-3635.3,-3761.2,-3892.1,-4013.6,-4136.6,-4265.9,-4391.1,-4516.3,-4638.4,-4745.3,-4851.3,-4963.5,-5053,-5104.7,-5120.6,-5070,-4912.1,-4643.3,-4271.1,-3791.6,-3214.2,-2556.9,-1842.9,-1114.3,-390.46,324.42,981.58,1552.7,2064.5,2504.1,2850.4,3134.9,3357.1,3503.8,3622.6,3736.6,3818.9,3874.4,3923.6,3974.3,4034.7,4093.4,4124.1,4120.6,4089.8,4030.4,3931,3793.1,3627.4,3431.5,3221.9,3034.1,2866.4,2713.4,2597.2,2515,2455.2,2422.8,2402.2,2387.3,2396.9,2419,2434.1,2444.3,2437.8,2408.7,2370.9,2316,2234.5,2137.5,2025.6,1897.6,1763.2,1623.8,1479.4,1330.3,1168.4,1001.7,847.27,694.7,532.14,375.09,231.5,91.559,-48.907,-195.39,-346.36,-483.79,-613,-749.47,-876.66,-994.02,-1119.6,-1231.6,-1323.8,-1426.5,-1526.4,-1609.3,-1700.1,-1787.7,-1858.3,-1940.2,-2024.5,-2088.6,-2156.3,-2235.1,-2310.9,-2390.5,-2475.4,-2559.1,-2642.6,-2725.2,-2815.5,-2917.2,-3018.7,-3121.1,-3231.4,-3352,-3488.6,-3625.5,-3746.2,-3872.2,-4008.5,-4127.8,-4236.9,-4360.6,-4483.2,-4578.6,-4654.1,-4713.3,-4722.2,-4653.9,-4498.6,-4228.6,-3838.2,-3356.9,-2782.8,-2111.9,-1387.4,-648.55,80.121,769.27,1415.1,2010.5,2518.7,2932.5,3271.9,3541.2,3756.5,3939.5,4079.9,4178,4266.4,4350.5,4417.2,4489,4580.2,4659.9,4709.3,4733.6,4726.2,4678.3,4583.9,4439.5,4261.2,4067.3,3868.2,3679.1,3505.6,3347.7,3214.4,3110.7,3041.6,3001.8,2970.4,2959.2,2979.8,2994.4,2994.1,3002.8,3000.6,2977.6,2950.1,2897.7,2811.3,2720,2628.4,2522.9,2397.8,2255.3,2115.5,1983.6,1842.2,1699.6,1565.2,1423.4,1281.1,1152.1,1019.4,878.38,748.32,629.69,514.47,397.53,266.59,137.82,39.941,-58.509,-185.58,-297.03,-385.49,-488.84,-577.38,-635.12,-718.28,-819.87,-892.39,-957.68,-1035.5,-1112.6,-1194.3,-1275.2,-1347.8,-1431.3,-1526.3,-1622,-1724.6,-1829.4,-1931.9,-2038.6,-2145.1,-2255,-2380.6,-2517.3,-2660.3,-2805.4,-2938.6,-3057.6,-3172.1,-3293.2,-3423.8,-3544,-3642.3,-3730.1,-3790.1,-3783.4,-3704.7,-3549,-3277.4,-2887.2,-2422.1,-1885,-1267.2,-621.59,16.683,655.17,1255.4,1785.8,2266.7,2680,3010.8,3296,3530,3697.6,3838.4,3959.6,4048.9,4141,4244.7,4333.5,4413.6,4500.5,4582.6,4640.8,4670.8,4675.2,4641.9,4563.6,4449.5,4304.5,4143.8,3981.6,3807,3635.6,3494.3,3365,3250.6,3181.2,3132.7,3079.9,3046.5,3034.4,3017.5,2993.1,2970.2,2944,2910.4,2877.6,2831.8,2747.8,2651.6,2571.4,2482.3,2380.9,2282.4,2168.3,2047,1935.8,1805.7,1664.6,1549.1,1437.8,1316.2,1201.8,1080,945.78,826.54,721.82,615.63,507.28,394.81,279.14,169.59,68.763,-31.366,-136.1,-237.1,-332.32,-431.35,-522.15,-594.57,-674.03,-768.76,-858.04,-942.74,-1028,-1107.2,-1188.6,-1277.7,-1365.4,-1449.9,-1532.6,-1618.6,-1713.5,-1805.1,-1887.8,-1975.9,-2071.6,-2172,-2280.3,-2386.7,-2487.1,-2593.5,-2703.8,-2808.5,-2913.6,-3024.9,-3134.5,-3232,-3320.5,-3409.3,-3494.8,-3562.7,-3595.9,-3580.5,-3511.4,-3375.8,-3164.7,-2903.3,-2603.9,-2247.9,-1855.9,-1463.7,-1057.7,-645.46,-276.47,48.497,352.77,615.51,822.72,990.54,1126,1242.2,1355.2,1455,1540.4,1623.7,1697.7,1771.2,1864.1,1949.8,2004.3,2054.5,2108.1,2129.8,2109.3,2073.1,2027.4,1955.8,1875.2,1814.4,1754.3,1682,1625.5,1588.6,1565.1,1570.1,1586.5,1589.6,1596.9,1614.1,1625.5,1636.4,1648,1646.9,1637.6,1633.9,1624.9,1591.7,1555.7,1534,1487.5,1415.2,1370.9,1339,1279.8,1222.1,1181.1,1134.8,1084.9,1035.9,986.21,937.52,882.79,832.05,793.78,745.45,689.7,643.81,592.57,539.96,503.7,462.21,403.54,349.54,312.08,283.97,245.1,191.71,150.25,118.4,75.045,36.918,6.3667,-42.811,-98.31,-141.34,-181.25,-217.13,-255.25,-309.86,-363.35,-409.2,-465.54,-521.83,-568.8,-623.64,-687.18,-749.72,-806.4,-853.96,-907.19,-970.32,-1026.8,-1086.1,-1151.3,-1199.8,-1248.2,-1314.3,-1372.8,-1426.9,-1488.6,-1531.6,-1563.9,-1617.4,-1673.6,-1716.5,-1762.1,-1811.9,-1861.9,-1911.6,-1955.1,-2000.9,-2053.2,-2094.3,-2124.4,-2164.2,-2217.3,-2271.9,-2324,-2378.7,-2427.2,-2462,-2508.3,-2573,-2618.6,-2644.2,-2682.6,-2729.4,-2766.8,-2779.1,-2740.9,-2655.7,-2543.2,-2400.1,-2230.2,-2042.1,-1831.6,-1617,-1423.9,-1244.4,-1064.8,-893.42,-741.78,-610.15,-498.63,-408.29,-323.16,-240.25,-186.59,-152.59,-102.64,-47.584,-2.7954,43.17,93.976,158.51,227.21,265.57,294.92,341.66,367.32,369.56,377.73,368,336.65,314.16,295.68,286.04,296.38,298.65,299.5,333.89,374.13,390.27,411.04,447.67,477.63,503.97,538.11,566.01,582.28,598.02,604.72,597.88,599.44,605.03,592.19,580.7,586.17,578.01,547.39,520.58,504.72,494.91,487.82,470.39,445.2,434.09,435.65,429.8,415.24,399.16,376.48,350.44,338.35,337.05,327.49,312.24,299.03,281.15,261.23,244.71,228.88,220.23,212.24,185.44,157.45,151.1,145.73,124.62,100.17,79.113,54.51,23.382,-1.1241,-14.67,-40.908,-80.694,-108.79,-134.06,-171.52,-207.42,-237.7,-266.31,-292.03,-321.91,-355.13,-387.02,-420.95,-451.32,-480.55,-517.94,-552.9,-587.23,-631.22,-668.26,-696.3,-731.99,-773.11,-821.16,-870.13,-900.3,-932.1,-981.12,-1016.6,-1045.9,-1093.9,-1126.2,-1128.6,-1132.9,-1127.2,-1084.9,-1019.8,-935.23,-822.77,-698.88,-570.92,-435.91,-314.09,-212.62,-112.39,-17.22,55.068,108.55,153.29,191.84,220.31,230.43,231.71,242.02,254.7,263.62,280.05,296.81,303.07,316.91,346.06,370.94,384.47,393.4,400.35,403.25,389.14,357.11,331.45,311.14,280.14,259.92,258.69,254.89,262.15,285.19,294.27,307.62,345.37,372.84,393.84,428.41,441.93,439.65,460.34,474.98,462.57,453.55,445.68,426.79,411.96,399.11,379.52,359.68,340.86,320.07,293.66,265.49,247.97,231.05,202.95,180.11,165.22,146.04,123.47,93.797,67.893,64.892,55.06,20.094,-0.56332,-8.73,-41.068,-74.034,-79.216,-84.453,-107.34,-128.25,-141.11,-161.58,-188.43,-205.44,-218.46,-240.15,-262.72,-285.24,-312.37,-331.65,-346.24,-374.06,-406.08,-430.3,-454.85,-479.54,-499.77,-523.81,-555.29,-586.4,-615.57,-652.11,-693.55,-718.3,-727.49,-754.14,-798.69,-826.53,-843.71,-879.65,-917.02,-935.28,-955.3,-982.59,-1007.2,-1042.5,-1079.9,-1096.3,-1115.8,-1157.4,-1196.6,-1223.9,-1252.6,-1291.7,-1339.5,-1378.6,-1407.7,-1440.3,-1464.3,-1477.5,-1495.3,-1495.1,-1458.9,-1407.2,-1335.8,-1224.5,-1091.6,-968.46,-855.65,-735.42,-612.62,-504.45,-403.47,-308.97,-240.22,-189.33,-140.43,-103.17,-82.543,-71.92,-66.065,-58.406,-42.575,-13.356,18.58,39.664,70.999,123.35,171.3,215.39,261.89,289.52,306.08,329.3,340.09,329.47,311.04,291.43,277.93,275.31,278.83,285.39,295.77,312.12,331.31,351.71,384.94,429.96,467.26,494.11,519.59,539.36,549.46,564.57,592.71,608.05,596.26,585,583.21,572.24,553.76,533.11,510.23,491.28,469.2,442.92,425.79,411.56,394.27,379.95,365.58,353.04,338.17,311.38,291.71,284.22,267.33,251.1,244.73,232.33,218.65,204.67,179.48,162.01,160.4,151.09,133.12,119.44,103.82,85.334,75.613,66.967,41.771,12.205,-5.635,-28.154,-56.289,-71.733,-94.652,-134.78,-159.83,-180.95,-225.54,-260.66,-275.88,-310.24,-356.72,-392.19,-432.96,-475.58,-504.42,-540.08,-587.45,-623.27,-654.72,-701.43,-751.97,-787.1,-813.68,-851.47,-894.33,-924.79,-957.23,-1003.6,-1045,-1081.5,-1127,-1170.3,-1211.9,-1264.1,-1309.1,-1339.3,-1377.9,-1425.3,-1473.6,-1533.5,-1594.3,-1640.5,-1693.8,-1757.7,-1804.2,-1838.4,-1879.3,-1916.8,-1938,-1936.7,-1909.1,-1853.9,-1764.4,-1655.7,-1549.5,-1426.6,-1283,-1145.6,-1003.3,-857.42,-737.38,-619.28,-494.49,-407.66,-344.79,-272.41,-215.93,-181.33,-145.36,-110.71,-81.809,-50.562,-9.3702,39.926,87.532,143.47,209.16,256.03,293.6,343.82,378.4,390.88,402.69,399.24,381.15,374.28,372.16,366.22,366.49,378.46,406.03,439.88,466.94,495.64,530.37,567.06,603.33,629.36,655.94,697.41,727.39,736.81,748.2,755.25,750.96,741.53,720.53,703.05,695.5,664.76,621.16,594.92,561.48,517.71,492.71,469.59,432.9,400.2,366.79,325.46,288.59,251.17,207.32,172.47,143.92,103.07,61.317,33.902,2.2775,-39.003,-72.261,-109.37,-161.23,-206.03,-241.5,-278.61,-313.1,-353.73,-401.06,-437.81,-474.79,-520.8,-563.2,-610.55,-664.2,-710.27,-764.12,-828.06,-876.57,-917.15,-968.21,-1023.1,-1077.1,-1128.3,-1172.8,-1220.6,-1283,-1355.2,-1419.7,-1473.2,-1534.9,-1601.9,-1655.3,-1716,-1800.2,-1877.7,-1945,-2021.9,-2088.9,-2141.3,-2213.4,-2294.5,-2349.9,-2393.6,-2435.6,-2448.3,-2420.1,-2350.2,-2236.6,-2096,-1934.1,-1744.6,-1540.5,-1323.7,-1087.8,-855.67,-635.15,-408.86,-186.42,8.6056,172.54,319.97,466.19,599.57,702.59,789.78,878.86,964.87,1037.2,1101,1177.7,1263.5,1332.7,1392.4,1446.7,1474.7,1488.6,1501.5,1492.5,1468.5,1448.1,1423.8,1398.6,1380,1365.4,1358.9,1358.3,1363.9,1383.2,1406.4,1431.8,1466.1,1497.3,1527.7,1555.8,1559.7,1567,1598.1,1595.6,1553.5,1529.9,1513.9,1473.5,1427.1,1380.8,1327.5,1270.7,1206.2,1139.9,1077.6,1005.3,931.56,871.42,806.73,732.22,663.9,596.51,524.58,456.02,386.45,311.27,237.46,168.42,104.2,41.777,-25.368,-92.387,-152.86,-219.96,-303.55,-385.51,-447.43,-499.37,-558.02,-621.55,-686.5,-756.91,-824.67,-881.36,-939.41,-1008.3,-1080.8,-1147.8,-1208.9,-1281.9,-1371.8,-1444.6,-1499.8,-1578.7,-1669.2,-1744.3,-1827,-1913.6,-1980.2,-2052.3,-2143,-2224.2,-2297,-2387.4,-2492.6,-2585.7,-2664.1,-2749,-2834.5,-2911.5,-3000.7,-3094.3,-3170.7,-3245.6,-3313,-3341.2,-3324.5,-3254.9,-3126,-2951.9,-2729,-2459.5,-2163.3,-1835.2,-1476.1,-1106.3,-737.06,-381.22,-37.053,300.86,600.14,853.86,1086.8,1283.4,1444,1596.9,1727.2,1833.8,1942.9,2044.1,2143,2257.1,2363.1,2457.5,2547,2609.8,2661.2,2714.8,2735.1,2729.6,2725.4,2701.3,2662.3,2637.7,2614.7,2581.1,2550.3,2533,2531.8,2536.1,2542.1,2563,2591.7,2615.1,2638.6,2657.1,2664.9,2667,2656.5,2640.1,2632.2,2606.5,2549.3,2494.1,2445.4,2380.8,2306.2,2228.8,2143.5,2056.3,1970.1,1880.5,1791.4,1708.7,1626.3,1529.3,1429.3,1354.9,1283.8,1188,1103.7,1037.8,950.91,861.44,791.52,713.76,633.29,565.8,491.15,412.48,342.41,266.4,187.78,123.89,67.08,0.047058,-75.714,-142.63,-203.63,-276.35,-348.26,-411.43,-484.8,-560.28,-627.2,-703.53,-783.36,-854.12,-931.84,-1016.4,-1094.1,-1168.4,-1243.4,-1325.6,-1418.5,-1506.8,-1588,-1673.4,-1755.5,-1829.2,-1909.7,-2001.6,-2093.2,-2180.9,-2272.6,-2363.9,-2442.6,-2521.7,-2619.8,-2718.7,-2803.5,-2886.8,-2965.7,-3032.1,-3089.3,-3112.1,-3080,-3006.1,-2873.7,-2667.2,-2424.5,-2148.8,-1812.5,-1449.5,-1090.6,-720.43,-350.71,-3.3014,320.53,613.02,872.21,1097.3,1276.6,1422,1555.2,1677.8,1781.9,1856.8,1915,1989.9,2074.3,2146.3,2217.9,2289.3,2346,2391.8,2420.7,2422.5,2405.5,2374.1,2330.7,2285,2238.3,2189.1,2144.3,2109.6,2083.4,2060.8,2048.4,2055.7,2069.2,2077.7,2093.7,2116.2,2128.7,2130.2,2124,2113.1,2107.7,2095.5,2052.4,1996.1,1954,1905.7,1829,1742.6,1661.5,1577.4,1490.5,1413.9,1346.3,1267,1173.6,1091.9,1020.2,933.79,851.77,793.52,726.19,639.83,565.9,505.9,441.11,368,292.32,227.38,171.23,107.4,44.946,-9.2623,-74.176,-145.98,-206.63,-263.81,-328.11,-394.71,-452.84,-503.51,-568.62,-647.23,-710.08,-765.44,-837.66,-910.78,-977.27,-1057.9,-1141.5,-1202,-1257.1,-1331.7,-1409.3,-1479.1,-1558.2,-1640.7,-1710.5,-1782.3,-1860.7,-1935.3,-2019.3,-2115.4,-2205.7,-2293,-2378.9,-2452.7,-2522,-2602.6,-2693.6,-2780.7,-2858.2,-2936.3,-3005.1,-3041.3,-3041.5,-2993.3,-2884.3,-2731.9,-2532.6,-2275.8,-1987.3,-1669.2,-1314.1,-955.64,-607.09,-265.82,52.249,354.34,632.93,854.8,1039.1,1205.6,1341.3,1469.6,1590,1666.1,1733,1823.9,1898.8,1955.9,2025.1,2089.4,2135.1,2165,2173,2170.7,2155.7,2103.9,2040.8,1995.9,1941.2,1875.2,1830.2,1797.3,1765.6,1748.5,1739.9,1734.3,1740.5,1756.9,1780,1799.3,1802.9,1806.1,1815.2,1810.5,1788.4,1758.1,1726.7,1695.3,1645.9,1577.8,1513.9,1450.6,1381.9,1314.9,1238.5,1155.3,1081.8,1004.9,921.03,843,763.74,686.55,615.09,532.91,451.22,383.74,311.95,239.17,171.34,89.655,13.038,-40.342,-106.24,-183.45,-237.86,-291.05,-358.62,-418.66,-484.62,-563.74,-625.07,-678.92,-749.94,-815.37,-866.5,-926.79,-997.1,-1066,-1136.9,-1211.8,-1278.2,-1334,-1401.9,-1482.7,-1550.2,-1617.3,-1703.8,-1782.7,-1847.1,-1919.8,-1997.7,-2075.8,-2159.3,-2241.8,-2320.2,-2391.8,-2459.4,-2539.4,-2625,-2701.5,-2780.1,-2861.1,-2942.7,-3036.6,-3131.4,-3217,-3300.8,-3376,-3447.1,-3522.7,-3582.5,-3630.2,-3682.7,-3707,-3667.8,-3569,-3419.9,-3226.3,-2983.9,-2680,-2324.9,-1943.7,-1553.7,-1159.5,-758.26,-366.88,-13.631,302.27,589.28,838.78,1052.7,1241.3,1402.9,1538.9,1661.6,1778.5,1889.3,1993.4,2092.9,2190.2,2289.4,2389.8,2477,2544.7,2601.3,2637,2635.4,2610.9,2580.3,2534.3,2475.4,2429.7,2400.1,2365.9,2330.3,2307.2,2290.4,2285.7,2306.3,2325.8,2327.9,2341.4,2361.8,2364.5,2371.8,2382,2360.1,2326.1,2294.7,2237.7,2176.1,2132.7,2067.4,1977.1,1901.1,1832.6,1753.9,1672.4,1592.6,1513.3,1428.7,1340.9,1263.6,1185.8,1096.4,1017.2,947.27,863.44,777.17,705.29,635.49,556.51,476.98,412.06,356.26,286.67,207.11,139.85,79.179,11.228,-53.437,-109.45,-172.43,-242.5,-305.18,-368.97,-442.11,-507.87,-569.62,-646.42,-726.94,-800.86,-875.07,-943.2,-1011.9,-1098.5,-1185.2,-1259.8,-1343.3,-1428.3,-1495.6,-1569.7,-1665.9,-1754.2,-1825.2,-1905.3,-1994.8,-2073.8,-2151.2,-2234.2,-2306,-2375.2,-2460.5,-2541.5,-2612.1,-2701.3,-2801.8,-2883.5,-2955.7,-3041.5,-3141.5,-3237.1,-3315.3,-3394.8,-3488,-3572,-3644.4,-3721.3,-3792.9,-3862.1,-3933.6,-3970.9,-3952,-3879,-3738.6,-3539.4,-3296.6,-2995.3,-2641.7,-2257.1,-1841.1,-1407.1,-974.75,-552.24,-155.84,209.39,541.58,820.67,1052,1254.9,1425.3,1569.4,1700.7,1817.2,1924.3,2025.5,2120.5,2221.5,2324.3,2416.3,2504.3,2582.3,2633.6,2666.1,2685,2673.1,2626.4,2563.5,2498.4,2435.8,2388.4,2359.9,2333.1,2308.1,2298,2297.3,2306.6,2331.6,2354.7,2368,2382.8,2397.3,2408,2409.4,2388.6,2355.9,2322.5,2275.1,2216.5,2158.3,2084.1,1992.9,1911.9,1839.4,1752.3,1652.2,1554.5,1464.4,1380.6,1300.4,1217.3,1123.5,1029,949.82,865.62,756.57,658.6,589.65,510.92,418.35,338.56,260.85,179.38,108.81,38.221,-40.689,-113.51,-179.62,-251.6,-332.95,-408.46,-463.53,-522.06,-607.29,-693.36,-762.46,-832.18,-910.82,-995.64,-1077.1,-1145.6,-1220.5,-1312.2,-1398.1,-1483.3,-1580.5,-1665.9,-1738.5,-1822.3,-1911.1,-1998.5,-2090,-2177.1,-2267,-2369.1,-2461.5,-2548.5,-2656.7,-2765.9,-2858.6,-2960,-3069.5,-3163.7,-3248.6,-3332.3,-3418,-3512.7,-3595.4,-3649.4,-3698.6,-3731,-3688.4,-3565.8,-3393.1,-3159.5,-2851.8,-2489.6,-2086.8,-1646,-1178.4,-703.22,-241.93,193.11,595.58,953.37,1261,1524.3,1748.9,1939.6,2094.5,2214.5,2320.8,2427.7,2527.9,2618.2,2703.4,2791.1,2884.5,2966.4,3029,3081.3,3107.6,3093.8,3054,2987.5,2894,2804.5,2731.2,2655.9,2579.5,2522.1,2484.1,2449,2424.8,2427.6,2432,2420,2421.9,2442.6,2448.8,2439.8,2432.7,2420.9,2392.2,2345,2286.6,2224,2152.4,2066.5,1973.3,1882.9,1789.7,1675.7,1550,1443.2,1346.5,1234.3,1122.1,1021.8,914.22,803.15,702.25,597.65,489.85,396.57,304.14,198.67,101.9,23.307,-56.825,-145.88,-232.54,-308.84,-380.68,-460.62,-546.24,-625.75,-700.23,-773.88,-845.09,-914.87,-986.79,-1066.1,-1149.9,-1228.6,-1307.7,-1390.1,-1465.6,-1545.8,-1636.7,-1721.6,-1813.8,-1921.9,-2013.3,-2095.6,-2195.6,-2289.7,-2374.7,-2474.3,-2570.7,-2655.8,-2749,-2844.1,-2936,-3029.9,-3119.6,-3218.2,-3333.4,-3440.7,-3539.6,-3648.1,-3761.4,-3876.5,-3988.3,-4083.6,-4178,-4281.6,-4373.7
-1612.7,-1688.5,-1759.7,-1849.7,-1944.5,-2028.9,-2109.2,-2200.2,-2301.9,-2402,-2501.8,-2607.2,-2713,-2820.4,-2932.7,-3036.4,-3134.6,-3255.5,-3394.2,-3516.5,-3624,-3738.5,-3837,-3873.5,-3832.7,-3711.8,-3503,-3214.2,-2852,-2412,-1920.7,-1418.8,-910.04,-391.84,110.54,568.6,969.04,1311.9,1600.9,1835,2007.8,2113.1,2171.4,2219.6,2250.6,2247.1,2240.2,2243,2230.2,2209.2,2204,2216.6,2237.7,2248.1,2245.4,2245.1,2236.8,2206.9,2168,2131,2107.3,2100.2,2090,2075.9,2070.6,2070.5,2079.8,2100.3,2118.1,2136.2,2158.7,2174.2,2180.5,2172.4,2148.7,2127.8,2098.4,2037.7,1975.5,1929,1856.5,1745.3,1630.1,1522.8,1415.4,1302.2,1177.6,1054.9,949.65,848.36,743.79,642.09,538.14,442.76,367.77,289.7,200.85,119.01,41.059,-35.066,-104.84,-179.19,-255.78,-324.65,-390.6,-453.46,-519.29,-597.72,-672.25,-735.28,-803.61,-879.99,-957.5,-1032.6,-1107.9,-1194.7,-1281.6,-1351.1,-1426.5,-1522.6,-1616.6,-1702.4,-1790.1,-1880.5,-1973.7,-2066.9,-2159.8,-2260.2,-2366.7,-2477.1,-2593.2,-2705.4,-2816.9,-2941.3,-3062.1,-3166.6,-3276,-3393.8,-3497.6,-3568.2,-3578,-3503,-3339.7,-3083.8,-2745,-2351.3,-1906.7,-1415.8,-919.58,-439.85,33.877,484.34,878.32,1213.6,1498.5,1723.5,1883.8,1991.9,2055.4,2074.7,2064.6,2045.6,2018.9,1975.6,1915.9,1854.8,1811.1,1787.9,1763.9,1723,1679.6,1642.9,1593.4,1537,1499.9,1466.2,1423,1403.6,1406.1,1399,1402.5,1432.6,1455.7,1472.5,1510.7,1547.7,1563,1583.2,1607,1607.5,1595.7,1580.6,1543.6,1490.6,1433.6,1365.6,1291.4,1208.9,1105.3,1000.1,905.31,800.44,691.48,592.81,482.83,361.9,262.57,178.68,87.869,3.4008,-71.92,-155.83,-234.43,-298.56,-373.08,-451.55,-510.51,-565.89,-629.61,-694.25,-759.78,-815.69,-866.1,-935.04,-1002.9,-1051.5,-1114.4,-1191.7,-1250.4,-1301.8,-1364.2,-1430,-1500.6,-1579.4,-1659.7,-1738.8,-1819.3,-1902.8,-1988.9,-2079.1,-2176,-2275.6,-2381.1,-2497.3,-2610.4,-2720.1,-2844.4,-2969.3,-3072.8,-3163.7,-3239.8,-3265,-3204.2,-3051.8,-2819,-2506.6,-2124.4,-1700.1,-1233.9,-730.73,-238.64,223.84,666.43,1067.8,1416.8,1714.2,1941,2103.3,2217.8,2277.6,2298.1,2297.4,2268,2221.8,2172.4,2113.4,2054.8,2000.2,1943,1898.9,1863.5,1807.4,1737.2,1676.8,1628.2,1586.3,1548.4,1517,1500.8,1500.8,1512,1534.4,1569.3,1610,1645.1,1675.6,1709.5,1741.1,1763.8,1779.5,1784.4,1771.3,1735.7,1679.6,1614.8,1544.5,1465.3,1381.7,1287.3,1177.6,1073,969.06,844.25,725.23,632.62,533.09,418.44,315.45,223.31,131.74,44.571,-38.336,-118.09,-193.44,-264.03,-329.89,-396.48,-465.2,-531.75,-594.36,-647.11,-700.45,-774.68,-848.17,-903.44,-967.18,-1032.8,-1083.9,-1153.2,-1234,-1288.8,-1345.2,-1421.1,-1490.2,-1565.6,-1652.9,-1724.7,-1803.5,-1910.8,-2009.4,-2098.1,-2207.7,-2317.9,-2412.5,-2522.6,-2654.3,-2778.2,-2884.9,-2989.2,-3096.1,-3183.4,-3225.3,-3211.5,-3128.2,-2957.9,-2696.4,-2346.4,-1926.1,-1464.9,-979.43,-493.18,-27.679,424.58,849.15,1210.3,1514,1769.3,1962,2100.4,2197.1,2255.1,2288,2297,2284.6,2268.1,2246.9,2227.8,2224.7,2215.4,2200.4,2211.3,2224.9,2212.8,2195.5,2175.4,2140.1,2099.6,2064.7,2050,2055.8,2048.2,2027.6,2027.7,2040.1,2046.7,2060.2,2080.6,2096,2109,2116.8,2114.8,2106.4,2084.9,2044.8,1997,1942.2,1875,1801.8,1717.3,1616.6,1521.8,1431.5,1320.5,1209.1,1120.7,1028.8,923.53,826.52,738.16,652.85,573.93,498.29,424.79,353.74,284.52,216.92,142.85,71.609,22.362,-30.465,-109.53,-181.85,-236.37,-299.14,-365.97,-428.22,-494.28,-554.2,-609.92,-684.61,-763.58,-821.62,-879.59,-956.83,-1038,-1115.3,-1194.6,-1274.7,-1355.6,-1439.6,-1527.5,-1619.1,-1702.9,-1774.1,-1855.2,-1959.2,-2072.3,-2183.6,-2286,-2375.3,-2467.6,-2569.7,-2654.8,-2695.9,-2688.9,-2633.8,-2513.3,-2314.2,-2057.3,-1762.2,-1425.1,-1068,-724.26,-388.82,-58.309,245.36,509.39,724.88,888.26,1013,1105.8,1170.6,1212.8,1224.2,1218.5,1218.7,1205.1,1175.8,1167.8,1173.3,1169.2,1174.7,1189.1,1186.7,1173.7,1159.4,1132.7,1098.5,1076.7,1070.3,1065,1056.4,1054,1057.5,1060.3,1071.8,1097.2,1123,1144.9,1169.2,1188.7,1195.5,1195.9,1193.2,1183,1166.3,1143.5,1110.4,1066,1012.4,953.17,893.48,832.5,765.89,696.99,630.53,565.29,502.32,440.38,371.27,303.57,256.56,217.38,163.37,111.04,77.995,43.998,-6.152,-58.236,-100.57,-140.41,-185.44,-230.5,-274.29,-321.07,-359.88,-389.07,-428.85,-477.02,-522.79,-574.49,-621.13,-654.72,-701.33,-757.2,-799.31,-843.18,-895.54,-948.13,-1015.2,-1086.8,-1141.7,-1200.6,-1270.2,-1333.4,-1403.7,-1486.4,-1562.5,-1634.4,-1707,-1775.6,-1839.3,-1879.4,-1880.8,-1850.7,-1778.9,-1650.6,-1474.5,-1252.9,-992.99,-722.35,-452.44,-184.64,66.576,286.45,465.65,615.59,759,875.47,933.38,959.12,984.57,992.38,973.23,954.29,941.93,917.43,895.73,897.49,894.48,872.31,857.15,844.92,819.76,790.75,758.9,734.57,727.51,708.5,681.9,683.55,694.04,700.74,725.27,748.55,761.83,787.9,809.13,819.26,847.53,874.2,867.05,847.62,834.97,814.56,779.2,740.7,704.49,663.58,616.96,565.09,504.46,443.24,386.18,327.93,274.71,225.46,172.8,129.74,91.659,36.508,-21.553,-66.752,-108.21,-140.4,-164.6,-199.73,-237.44,-269.19,-311.01,-358.62,-398.52,-436.34,-469.65,-499.5,-545.44,-601.73,-645.42,-680.64,-719.29,-762.41,-809.89,-855.75,-898.31,-946.14,-995.06,-1036.8,-1081.8,-1140.1,-1202.6,-1258.3,-1313.7,-1375.1,-1432.8,-1485.3,-1547.2,-1618.6,-1690.4,-1763.9,-1836.8,-1903.2,-1962.8,-2016.8,-2067.1,-2106.2,-2115.3,-2081.3,-2000.4,-1870.6,-1692.6,-1474.2,-1230.1,-967.71,-691.86,-421.91,-172.04,54.312,242.47,391.9,520.15,620.13,681.83,721.68,752.72,775.44,783.83,771.84,758.67,762.38,766.74,769.73,788.38,802.86,796.89,801.36,818.13,808.38,784,782.1,785.8,771.96,754.31,742.16,736.41,740.58,747.91,758.19,775.7,789.82,802.76,825.52,841.34,839.04,836.08,835.07,824.4,807.99,787.07,756.36,725.65,697.91,656.07,599.83,544.94,489.1,427.7,372.26,327,281.66,227.99,170.31,122.25,84.359,45.295,6.5033,-31.446,-75.203,-116.34,-153.7,-196.58,-229.75,-254.08,-299.25,-349.04,-377.96,-414.12,-463.33,-500.1,-537.82,-586.22,-630.92,-679.03,-729.26,-770.9,-818.98,-870.78,-915.42,-976.3,-1049.6,-1103.6,-1150,-1207,-1261.4,-1310.2,-1363.4,-1427,-1498.1,-1561.6,-1618.9,-1683,-1742.9,-1793.8,-1852.7,-1917.1,-1982.1,-2057.4,-2131.4,-2195.6,-2269.9,-2351.4,-2416,-2472.2,-2535.7,-2592.1,-2620.3,-2604.1,-2529.7,-2403.6,-2240.1,-2033.7,-1779.5,-1494.7,-1202.6,-916.98,-644.87,-390.36,-156.6,51.354,225.35,365.15,479.94,566.76,621.51,664.15,708.35,746.32,778.93,809,837.51,878.14,927.55,973,1027.8,1087,1123.8,1146.7,1166,1168.9,1164.2,1162.5,1153.9,1147.4,1157.7,1173.9,1182.7,1187.7,1197.6,1213.8,1237.5,1268,1287.6,1293.7,1306.5,1316.1,1311,1311.4,1308.4,1284.8,1261.9,1235.8,1183.9,1129.3,1090.8,1048.7,993.23,934.47,880.91,833.05,786.24,734.11,671.25,610.61,569.89,532.52,481.09,430.91,389.57,351.04,313.46,267.67,214.75,169.65,128.01,78.542,27.113,-19.642,-66.991,-119.28,-167.69,-212.51,-272.49,-340.95,-395.04,-446.19,-509.16,-576.61,-645.73,-710.01,-769.64,-841.64,-909.71,-955.34,-1015.8,-1103.9,-1178.6,-1233.8,-1293.5,-1362.8,-1440.3,-1513.2,-1567.9,-1621.7,-1690,-1763.6,-1835.6,-1902.5,-1967.1,-2041.7,-2123.3,-2199.8,-2272.2,-2349.3,-2432.9,-2510.1,-2580.6,-2665.5,-2750.3,-2804,-2843.5,-2872.9,-2850.6,-2762.8,-2616.4,-2409.1,-2153.7,-1862,-1537.4,-1197.4,-853.69,-512.57,-189.11,102.98,350.23,555.14,735.52,881.44,980.3,1053.8,1115.3,1160,1193.2,1223.3,1251.8,1279.2,1317.9,1377.2,1433.1,1475.2,1530,1585.2,1609.8,1622.8,1636.3,1633,1619.7,1613.4,1615.4,1615.4,1601.6,1594.5,1618.8,1650.2,1666.6,1684.7,1711,1736.5,1757.8,1767.4,1762,1754.3,1749.8,1736.9,1707.2,1663,1607.5,1546.7,1491,1437.3,1370.5,1292.3,1221.2,1160.4,1096.4,1025.8,956.7,894.12,838.7,783.1,721.25,665.42,621.67,577.71,533.88,491.57,439.53,386.38,341.81,291.08,236.19,188.42,137.16,85.641,44.449,-5.5852,-73.145,-137.5,-191.05,-244.71,-308.71,-379.31,-440.95,-498.87,-566.66,-630.69,-687.81,-756.94,-835.83,-915.17,-987.42,-1038,-1085.7,-1156.4,-1228.9,-1294.3,-1371.7,-1451.9,-1524.6,-1600.1,-1677.6,-1752.7,-1829.5,-1910.9,-1996.3,-2074.3,-2142.9,-2216.3,-2295.2,-2371.7,-2436.8,-2479.9,-2498.8,-2472.4,-2376.5,-2230,-2032,-1756.8,-1438.5,-1108.9,-745.72,-361.62,1.397,333.13,633.59,898.23,1118,1285.6,1414.9,1515.6,1583.4,1626.6,1651.2,1657.5,1658.1,1665.9,1681.2,1688.9,1687.4,1708.5,1749.2,1767,1767,1770.1,1759,1733.6,1712.6,1692.9,1673,1664.9,1670.8,1676.4,1673.4,1679.9,1705,1728.8,1748.3,1770.8,1784.4,1791.6,1800.3,1791.3,1761.1,1732.9,1704.3,1658.8,1604.1,1543.3,1466.4,1388.3,1315.9,1228.4,1141.4,1073.5,989.86,891.56,816.65,748.17,673.4,610.96,544.36,466.82,394.48,319.98,258.39,223.12,176.78,117.65,71.784,16.398,-54.523,-113.92,-167.12,-224.49,-283.52,-349.67,-417.26,-480.43,-548.46,-619.71,-688.89,-757.66,-822.22,-891,-980.06,-1073.9,-1149.2,-1220.1,-1302.9,-1382.6,-1455.9,-1538,-1620.5,-1696.7,-1778.8,-1859.4,-1934.8,-2019.8,-2098.3,-2157.6,-2226.8,-2308.3,-2380.8,-2451.1,-2520.1,-2585.8,-2663.6,-2743.9,-2816.1,-2898.9,-2986.2,-3068.1,-3165.4,-3263.2,-3336.8,-3420.1,-3526.9,-3618,-3683.2,-3725.8,-3717.2,-3637.6,-3489.3,-3269.6,-2976.9,-2619.4,-2208.2,-1762.4,-1309,-861.3,-419.07,1.9091,377.05,703.1,984.7,1215.4,1390.3,1516.5,1615.7,1703.9,1770,1814.3,1860.7,1906.9,1944.7,1996.9,2066.8,2134.7,2204,2274.8,2337.6,2397.7,2442.5,2455.7,2455.1,2444.4,2418.1,2403,2398.2,2381.4,2377.3,2388.5,2379.3,2365.8,2370.9,2376.8,2385,2396.3,2392.5,2384.7,2376.1,2348.2,2313.5,2279.4,2232,2179.5,2123.4,2050.2,1970.8,1894,1811.3,1722.5,1632.9,1545.9,1459.1,1367.5,1282.5,1208.9,1132.7,1056.2,985.57,911.64,840.16,783.55,730.47,664.8,595.45,541.63,490.85,422.36,356.47,300.69,230.42,161.9,105.89,23.856,-70.393,-134.06,-193.38,-269.92,-344.77,-426.6,-518.86,-600.43,-678.59,-761.58,-840.53,-928.22,-1025.8,-1106.6,-1175.9,-1257,-1344.6,-1433,-1526.6,-1612.3,-1681.9,-1751.1,-1833,-1921.3,-2003.6,-2079.6,-2160.4,-2246.7,-2328.6,-2404.6,-2480,-2560,-2650,-2747.9,-2843.1,-2929,-3015.4,-3115.7,-3222.9,-3324.2,-3422.3,-3519.1,-3610,-3687.6,-3734.9,-3738.2,-3682.9,-3537.6,-3297.4,-2989.2,-2619.8,-2193.1,-1733.2,-1254.1,-771.12,-306.77,132.3,534.19,877.66,1163.9,1398,1574.3,1701.2,1794.5,1857.3,1891.8,1907.7,1912.3,1910,1912.2,1927.9,1954.3,1991.1,2039.1,2084.4,2116.8,2143,2162.8,2162.9,2142.4,2118.9,2101.3,2084.6,2071.6,2061.5,2048.7,2050,2072.9,2088.9,2094.7,2115.3,2139.1,2144.2,2140.8,2137.2,2130.5,2120.3,2097.4,2055.8,2007.4,1954.4,1885.6,1807.1,1731.7,1655.5,1567.5,1462.5,1352.9,1261.9,1181.7,1087.3,988.26,899.48,814.9,742.04,685.81,625.84,555.74,487.67,422.12,356.45,296.5,243.44,189.32,130.17,69.901,12.092,-41.709,-98.072,-163.81,-224.15,-275.72,-342.32,-418.39,-488.84,-566.93,-639.28,-693.94,-767.38,-857.24,-933.65,-1018.9,-1113.2,-1183.9,-1252.9,-1342.7,-1431.7,-1511.7,-1582.8,-1647.2,-1727.6,-1820.5,-1900.3,-1973.7,-2056.1,-2142.7,-2227.3,-2306.9,-2388.2,-2484.2,-2585,-2677.5,-2772.3,-2873,-2969.6,-3066.7,-3172,-3272.8,-3350.6,-3398.6,-3400.3,-3323.7,-3160.3,-2921.4,-2600.2,-2203.7,-1764.9,-1291.4,-789.51,-296.76,170.15,611.61,1005.6,1338.4,1615.4,1835.5,1994.8,2096.5,2156.3,2193.4,2209,2204.7,2192.8,2171.8,2142.4,2127.9,2136.1,2149,2162.1,2186.4,2208.8,2206.2,2190.9,2176.8,2147.4,2106.3,2076.8,2057.5,2049.3,2055.6,2057.9,2058.5,2074.4,2088.1,2087.9,2094.5,2111.5,2124.1,2127.6,2121.7,2105.3,2080.7,2048.6,2003.6,1942.5,1869.5,1787.9,1699.2,1605.3,1505,1399.1,1287.2,1167.1,1055.5,959.4,856.81,753.04,665.99,574.47,479.97,409,337.95,250.85,177.41,114.49,44.908,-16.151,-71.195,-137.14,-203.34,-259.54,-315.63,-381.02,-451.96,-516.56,-577.51,-650.84,-732.89,-805.79,-871.75,-947.32,-1035.4,-1128.6,-1222.7,-1307.5,-1381.9,-1472.8,-1583.1,-1678.3,-1759.9,-1850.6,-1941.5,-2035.4,-2140.1,-2231.7,-2311.9,-2402.2,-2482,-2546.5,-2632.9,-2737.5,-2827.8,-2911,-3001.8,-3085.7,-3159.5,-3245.5,-3343.7,-3431.9,-3519.1,-3623,-3730.6,-3834.5,-3939.3,-4036,-4127.2,-4215.4,-4273.3,-4275.3,-4203.4,-4041.3,-3793.2,-3456.5,-3026.1,-2536.2,-2008.8,-1441.1,-875.73,-352.66,144.77,618.1,1036.5,1382.2,1654.8,1869.6,2034.2,2140.9,2209.6,2264.6,2292.7,2296.4,2307.2,2323.2,2329.2,2342.6,2379.3,2427.9,2477.4,2522.4,2561,2601.5,2636.3,2640.8,2625.3,2611.1,2588.2,2565.5,2561.9,2556.8,2550.6,2565.3,2575.4,2572.4,2587.1,2604.2,2603.9,2610.2,2617.1,2601,2578.2,2557.8,2520.9,2465.4,2404.9,2339.2,2258.8,2166.2,2073.7,1979.1,1868.2,1745.8,1628.8,1518,1412.5,1320.8,1234.7,1136.5,1034.2,946.31,872.96,802.19,725.31,648.99,581.2,511.17,438.23,376.98,320,257.63,196.17,130.11,58.251,-7.5847,-74.432,-149.72,-222.96,-293.53,-369.81,-452.18,-537.89,-627.92,-722.21,-811.67,-896.87,-990.84,-1083.3,-1166.7,-1260.7,-1354.3,-1431.8,-1524.2,-1631.2,-1721,-1805,-1890.9,-1968.1,-2054.5,-2151.6,-2241.2,-2329.5,-2414.7,-2498.9,-2603.6,-2709.7,-2793.6,-2882.4,-2987,-3088.5,-3194.4,-3315.1,-3432.8,-3530.6,-3620.7,-3719.2,-3801.8,-3836,-3810.2,-3697.9,-3485,-3193.9,-2824.3,-2379.2,-1899.1,-1391.2,-854.62,-340.73,123.23,552.35,938.81,1266.3,1535.4,1750.1,1909.2,2007.4,2060.7,2091.7,2090,2058.8,2036,2022.6,1996.6,1970.4,1959.1,1957.8,1963.4,1969.9,1968,1961.6,1949.2,1917.6,1881.8,1866.6,1852.2,1826.6,1820.2,1833.4,1843,1857,1878.2,1897,1919.1,1943.4,1965.3,1985.4,1996.4,1999.3,1996.9,1981,1953.3,1910.5,1850.7,1790,1718.5,1626.4,1541.4,1450.1,1323.2,1200.5,1107,1010.5,902.46,797.89,703.54,615.28,522.23,432.25,349.78,262.66,190.94,141.6,74.806,-1.8777,-56.5,-110.52,-171.62,-225.66,-287.75,-351.33,-399.3,-453.83,-518.61,-577.77,-642.96,-711.87,-771.36,-837.14,-911.08,-975.84,-1040.4,-1117.1,-1194.4,-1263.6,-1334,-1410.2,-1480.7,-1552.5,-1644.8,-1742.3,-1827.3,-1910.5,-1995.3,-2088.5,-2195,-2287.9,-2374.2,-2485.9,-2593.2,-2682,-2794.2,-2916.4,-3015,-3107.1,-3193.6,-3250.4,-3263.1,-3214.8,-3096.5,-2894.1,-2592.4,-2218.6,-1796.9,-1324.1,-834.47,-358.72,117.39,570.43,954.59,1280.9,1569.3,1801.4,1968.3,2085.3,2151.9,2167.7,2168.3,2169.6,2137.8,2074.7,2019.8,1973.1,1928.5,1903.1,1888.2,1866.3,1841.9,1814.6,1776.1,1731.7,1694.2,1663.8,1630.1,1602.8,1602.9,1615.6,1617.7,1627.7,1662.7,1698.9,1719,1743.4,1778.3,1792,1783.7,1788.3,1792.2,1758.1,1702.3,1646.7,1577.7,1494.6,1407.6,1315.1,1219.8,1121.9,1016.4,904.92,786.24,667.91,565.11,462.85,355.57,269.29,187.58,85.471,-5.3426,-77.039,-154.86,-227.62,-292.37,-360.66,-416.77,-467.41,-529.97,-589.54,-653.52,-733.13,-799.89,-852.62,-915.98,-982.87,-1043.1,-1104.5,-1177,-1257.6,-1327.2,-1392.9,-1475,-1552.1,-1617.5,-1704.1,-1802.9,-1886.6,-1968,-2053.7,-2130.5,-2205.1,-2293.4,-2394.6,-2491.9,-2578.4,-2667.8,-2767.4,-2868.6,-2968.1,-3069.6,-3174.5,-3281.6,-3390.4,-3501.1,-3609.9,-3713.5,-3811.1,-3903.1,-3982.9,-4025.6,-4009.4,-3928,-3751.4,-3454.9,-3075.4,-2646.2,-2163.2,-1640.2,-1099.8,-561.14,-55.055,415.96,857.25,1232.1,1523.9,1757.5,1936.9,2059.8,2139.4,2181.6,2199.8,2213.4,2216.1,2205.8,2203.7,2210.3,2216.3,2240.2,2281.9,2312.4,2333.8,2355.6,2363.3,2362.3,2358.1,2334.1,2307.2,2299.3,2293.5,2283,2271.4,2260,2267.6,2285.6,2286.7,2289.3,2297.2,2285.8,2276.5,2281.4,2263.8,2224.4,2188.5,2145.1,2085.3,2019.6,1948.3,1862.9,1764.6,1663.7,1559,1443.3,1326.7,1214.8,1102,999.06,904.7,802.56,703.83,612.66,520.06,443.71,377.82,298.54,227.45,168.63,98.905,37.055,-17.873,-93.823,-168.21,-231.15,-304.15,-370.62,-428.56,-499.17,-568.13,-638.62,-725.92,-801.66,-860.97,-935.06,-1027.6,-1128.6,-1225.3,-1309.6,-1398.1,-1490.6,-1575.4,-1670.6,-1771.7,-1853.5,-1932.6,-2027,-2121.7,-2208.7,-2291.1,-2375.1,-2468.5,-2564.8,-2656.2,-2746,-2836.6,-2934.3,-3042.1,-3149.1,-3255.8,-3369.8,-3480.9,-3582.2,-3682.4,-3780.5,-3861.6,-3903.4,-3876.9,-3770.2,-3591.7,-3329.1,-2960.6,-2512.9,-2031.1,-1517.7,-977.96,-450.38,53.708,537.69,967.11,1321.8,1615.6,1844.8,2013.2,2143.2,2225.5,2255.5,2261.6,2253,2233.2,2215.2,2190.5,2162.9,2154.5,2160.2,2171.5,2185,2184.7,2177.7,2174.1,2152.5,2113.3,2076,2041.4,2018.3,2014.6,2019.2,2030.1,2044.8,2057.9,2081.6,2109.8,2124.9,2140.8,2160.8,2165.9,2163.1,2158,2130,2084.7,2043.5,1987.9,1901.8,1810.9,1722.3,1615.7,1504,1402.1,1290.8,1172.9,1068,963.4,855.11,755.66,647.95,534.27,453.46,390.26,302.05,213.3,152.03,93.063,29.93,-27.233,-92.586,-158.97,-213.29,-276.12,-343.73,-397.4,-453.13,-510.34,-559.84,-628.04,-711.16,-776.02,-834.2,-905.4,-979.3,-1050.7,-1122.8,-1193.9,-1266.2,-1348.4,-1433.6,-1501.4,-1571.4,-1674.2,-1775.4,-1852.2,-1939.8,-2038.4,-2133.7,-2240.5,-2342.1,-2432.8,-2543,-2658.8,-2766.8,-2885.7,-2997.3,-3096.2,-3208.5,-3309.2,-3363.9,-3367.7,-3297.5,-3137.8,-2895.2,-2564,-2151.9,-1682.7,-1177,-661.71,-147.87,357.86,821.83,1231,1590.4,1881.7,2105.3,2271.3,2361.9,2394.3,2409.2,2396.5,2348.7,2293.6,2237.3,2178.3,2131.2,2095.5,2061,2029.6,2004.9,1980.4,1942.8,1891.3,1839.2,1787.8,1733.6,1690.7,1676.8,1689.8,1707.6,1717.2,1734.7,1770.3,1812.6,1853,1886,1910.6,1934.4,1948,1941.2,1927.7,1904.1,1853,1789.2,1721.5,1629.9,1525.2,1433,1332,1205.2,1080,963.51,840.56,724.1,619.18,512.41,411.88,315.6,211.2,120.2,44.743,-44.114,-129.42,-190.52,-254.24,-322.59,-378.75,-443.02,-515.42,-565.53,-609.17,-678.2,-757.81,-827.09,-888.56,-948.27,-1017.6,-1101.4,-1187.4,-1269.6,-1346.6,-1420.8,-1510.5,-1604.9,-1678.8,-1761.2,-1865.8,-1955.7,-2039.4,-2136.7,-2225.8,-2319.5,-2432.1,-2527.7,-2606.4,-2699.7,-2801,-2899.1,-2993.3,-3088,-3197.6,-3312.7,-3417.4,-3526.3,-3641.8,-3752,-3861.5,-3967,-4061.8,-4145.9,-4187.4,-4140.5,-3995.9,-3764.8,-3442,-3017.5,-2517.2,-1981.9,-1408.7,-794.82,-200.68,333.72,834.57,1293.3,1660.6,1941.7,2167.4,2338.4,2458.1,2526.3,2535.7,2523.1,2518.9,2496.6,2463.1,2452.4,2446.9,2444.3,2470.8,2499.6,2511.6,2533.2,2554.2,2555.2,2543,2506.4,2457.7,2431.2,2405.3,2369.6,2362.5,2369.1,2361.9,2370.9,2392.1,2394.3,2397.9,2414.2,2423.1,2420.5,2395.5,2351.8,2319.5,2281,2210.3,2132.3,2053,1960.9,1864.3,1749.6,1616.3,1497.3,1379,1238.9,1103.7,983.74,871.68,770.81,667.38,560.5,467.55,380.23,297.98,229.56,155.01,73.726,7.7232,-52.228,-118.48,-189.76,-268.28,-340.2,-400.34,-470.15,-546.85,-618.82,-699.25,-783.05,-857.07,-937.25,-1028.4,-1118.6,-1211.7,-1307.8,-1400.3,-1490.3,-1574.9,-1662.4,-1768.5,-1873.1,-1960.1,-2052.4,-2154.7,-2254.5,-2359.3,-2464.9,-2558.1,-2646.8,-2740.1,-2839.5,-2939.1,-3030.5,-3125.6,-3229.6,-3331,-3441.9,-3563.5,-3675.2,-3791.6,-3912.3,-4008.3,-4103.6,-4211.9,-4287.2,-4313.9,-4284.9,-4159.5,-3929.9,-3604.4,-3175.3,-2663,-2100.5,-1509.3,-909.98,-314.35,252.33,757.71,1206.5,1600.2,1915.1,2149.6,2309,2401.8,2460.9,2498.8,2509.5,2507.5,2497.1,2479,2477.3,2490.2,2500.5,2528.6,2582.1,2628.1,2657,2683.1,2694.8,2676.3,2647.7,2628.5,2602.7,2568.1,2546.5,2529.7,2507.1,2499.2,2504.3,2503.7,2505.7,2513.9,2517.7,2516,2508.3,2495.7,2476.4,2440.5,2393.8,2337.1,2259.6,2177.5,2095.4,1988.5,1869.3,1762.5,1656.5,1541.4,1414.9,1281.5,1162.8,1057.5,948.82,844.08,750.03,666.04,590.91,507.99,419.38,349.64,290.1,221.07,153.89,96.917,38.507,-26.297,-93.509,-165.95,-248.25,-333.26,-410.55,-477.85,-541.79,-619.97,-715.3,-800.88,-873.5,-962.34,-1062.8,-1152.3,-1241.3,-1332.6,-1407.1,-1482.5,-1586.1,-1694.5,-1782.3,-1865.8,-1956.5,-2050.7,-2148.6,-2238.3,-2315.6,-2399.5,-2489.3,-2575.2,-2670.9,-2775.3,-2876.2,-2987.7,-3107.6,-3207,-3297.6,-3411.9,-3532.5,-3630.8,-3723.5,-3820.4,-3885.4,-3886.6,-3811.7,-3643.7,-3377.1,-3020.6,-2579.8,-2066.8,-1500.8,-906.37,-319.63,235.02,746.99,1204.2,1605.7,1941.8,2187.9,2359.8,2488.2,2563.2,2584.9,2582.6,2561.3,2517.3,2469.7,2435,2416,2414,2422.2,2426.6,2427.7,2432.5,2423.1,2388.7,2358.5,2343.8,2319.6,2286.7,2262.9,2248.5,2244.4,2246.3,2246.2,2260.3,2291.2,2311.8,2326.4,2352.4,2369.1,2362.5,2346.6,2323.1,2289.2,2244.3,2177.3,2097.1,2021.5,1935.3,1832.6,1726.8,1602.1,1456.7,1326.6,1216.2,1102.5,986.91,879.33,778.91,677.58,574.3,484.13,406.32,323.6,242,170.87,104.97,47.195,-8.3646,-75.097,-142.37,-201.35,-260.1,-319.26,-381.54,-452.08,-524.12,-597.5,-675.69,-750.38,-820.71,-892.34,-964.65,-1043.2,-1131.6,-1222.2,-1311.6,-1396.8,-1478,-1567.4,-1665.1,-1761.6,-1856.9,-1942.2,-2017.3,-2103.2,-2191.9,-2270.8,-2360.5,-2454.4,-2536.5,-2629.2,-2726.9,-2809,-2897.1,-2995.3,-3087.5,-3185.4,-3287.2,-3386.5,-3500.8,-3619.6,-3720.3,-3810.3,-3898.1,-3980.6,-4032.7,-4016,-3922.9,-3743.1,-3450.4,-3062.9,-2606.4,-2082.7,-1519.9,-945.84,-374.24,161.87,658.65,1119.5,1496.5,1779.5,2006.4,2173.2,2281.5,2354.5,2377,2354.4,2321.1,2267.9,2198.7,2151.7,2116.8,2075.5,2055,2058.6,2059.3,2048.7,2023.4,1985.6,1948.9,1910.3,1870.2,1849.1,1845.5,1846.1,1862.4,1894.9,1924.8,1957.4,2006.4,2055.8,2088,2113.1,2139.8,2159.5,2164.7,2151.6,2117,2070.5,2016.3,1943.6,1854.6,1760,1657.4,1547.1,1429.6,1300.8,1172.9,1053.3,930.29,809.86,702.73,604.07,518.06,441.57,356.4,269.97,197.1,131.34,68.994,8.4374,-53.827,-112.79,-170.9,-229.16,-279.49,-331.33,-388.12,-437.39,-494.79,-572,-643.77,-702.13,-759.11,-815.97,-882.94,-968.01,-1053.2,-1123.3,-1188.3,-1262.1,-1337.4,-1406.5,-1484.7,-1570.2,-1649.6,-1741.3,-1837.9,-1908.7,-1985,-2089.8,-2188.1,-2282.1,-2389.2,-2489.8,-2594.2,-2720.7,-2848.3,-2968.8,-3083.9,-3186.7,-3287.8,-3385.3,-3448.8,-3453.8,-3380.1,-3217.7,-2971.4,-2633.8,-2202.8,-1704.6,-1174.7,-643.11,-117.79,403.11,889.58,1306.2,1649.1,1925.7,2143.6,2297.6,2372.3,2391.3,2388.5,2355.4,2294.8,2226.6,2139.2,2045.2,1983.9,1939.8,1888.5,1843.4,1796.5,1738.6,1688.2,1633,1564.3,1516.5,1488.5,1457.1,1446.9,1470,1496.3,1521.4,1560.1,1611.7,1668.4,1713.5,1742.9,1779.4,1818.2,1824.7,1806.6,1793.7,1768,1706.7,1633.2,1558.6,1464.4,1355.2,1243.3,1124.3,1002.5,879.62,751.71,626.87,500.19,370.31,262.65,167.83,62.443,-26.067,-95.89,-185.67,-277.09,-343.39,-416.56,-503.21,-565.78,-607.56,-664.28,-734.23,-795.04,-854.61,-918.19,-965.75,-1012,-1084.1,-1155.7,-1214.3,-1289,-1370.2,-1443.9,-1530.6,-1613.8,-1677.8,-1760.3,-1859.4,-1939.1,-2017,-2104.4,-2180.4,-2264,-2372.5,-2478.5,-2575.5,-2677.2,-2779.3,-2884.6,-3001.4,-3115.6,-3218.1,-3328.9,-3459.6,-3586.6,-3700.2,-3819.9,-3935.3,-4021.7,-4081.6,-4092.3,-4013.8,-3843.4,-3570.7,-3178.1,-2697.9,-2165.6,-1586.6,-977.01,-367.8,210.62,742.62,1225,1638.5,1968.8,2226.3,2414.7,2539.1,2609.6,2631.4,2627.7,2610.7,2567.8,2520.3,2489.8,2458.2,2427.2,2413.5,2417.7,2434.8,2443.8,2439,2439.2,2426.9,2392.8,2362.6,2323.4,2277.9,2270.6,2281.7,2278.4,2287.2,2308,2325.7,2352.8,2372.7,2369.8,2365.9,2361.8,2352.9,2346.6,2318,2253.6,2183.5,2109.2,2011.1,1905.8,1807.2,1694.6,1560.8,1426.4,1296.4,1158.5,1021,899.6,782.04,659.24,552.29,459.23,351.15,243.94,167.75,93.85,1.4768,-75.819,-136.59,-210.37,-286.36,-349.54,-408.21,-469.05,-543.39,-624.78,-696.93,-779.92,-868.51,-930.11,-996.25,-1085.7,-1163.9,-1248,-1348,-1428.5,-1516.4,-1628.6,-1721.7,-1810.7,-1921.3,-2027.3,-2131.9,-2235.3,-2324.1,-2429.2,-2546.7,-2638.7,-2729.9,-2837.5,-2939.8,-3044.8,-3155.9,-3260.5,-3368.1,-3480.1,-3592.3,-3712.6,-3834.7,-3951.3,-4067.6,-4185.3,-4299.1,-4386.6,-4438.7,-4467.2,-4426.4,-4254.6,-3970.3,-3590.8,-3103.7,-2547.3,-1954.4,-1323.8,-691.92,-91.013,477.41,988.41,1429,1805,2096.8,2308.2,2466.6,2566.4,2614.8,2640.6,2649.5,2651.8,2659.1,2661.3,2667.2,2687.3,2713.9,2765.8,2843.1,2901.2,2939.5,2980.6,3000.5,2986.9,2956.3,2911.3,2866,2837.7,2813,2782.9,2757.1,2738.8,2728.1,2721.6,2712.6,2704.4,2697.9,2687.6,2673.6,2649.6,2611,2566.5,2508.9,2427.7,2349,2286.4,2203.2,2085.8,1962.3,1836.2,1701.7,1576.2,1460.7,1342.6,1224.2,1103.9,982.66,874.58,779.89,690.63,605.91,524.28,451.39,385.81,310.51,230.63,162.35,96.463,21.46,-59.214,-136.42,-204.15,-272.58,-349.59,-428.76,-512.3,-597.62,-677.59,-769.43,-876.12,-974.88,-1070.8,-1173.3,-1272,-1373.6,-1476.9,-1564.4,-1658.1,-1771.3,-1869.7,-1956.5,-2063.1,-2170.1,-2263.6,-2361.3,-2453.2,-2536,-2634,-2739.5,-2839.7,-2945.9,-3052.1,-3157.7,-3272.4,-3378.7,-3484.7,-3618.8,-3746.9,-3842.3,-3941.2,-4044.9,-4109.8,-4117.1,-4054.7,-3895.8,-3624.2,-3247.9,-2794.7,-2285.5,-1727.1,-1143.3,-568.96,-15.091,511.69,977.8,1360.6,1681.4,1949.8,2138.1,2251,2327.6,2377.8,2395.9,2388.9,2362.7,2334,2316.2,2301.6,2304.1,2342.9,2382.2,2396.4,2420.9,2455.6,2450.1,2408.9,2377.3,2354.1,2319.8,2285.4,2262.7,2242.5,2220,2207.8,2213.9,2225,2231.5,2243.4,2257,2255.8,2249.8,2251.9,2244.6,2216,2173.3,2114.9,2041.7,1963.9,1876.2,1771.9,1662.5,1551.7,1439.3,1331.2,1213.7,1084.1,972.93,874.45,760.39,652.09,569.25,492.36,414.6,338.29,263.35,201.09,144.31,80.322,24.648,-25.866,-95.119,-171.13,-234.45,-295.92,-364.91,-438.96,-514.64,-582.05,-642.79,-714.3,-789.79,-851.86,-920.52,-1013.2,-1104.8,-1182.3,-1262.7,-1350.3,-1435,-1508.5,-1573.2,-1649.2,-1741.6,-1831.8,-1918.5,-2012.4,-2106.8,-2197.4,-2296.4,-2407.9,-2519.9,-2630.3,-2748.3,-2867.7,-2982.1,-3095.2,-3198.2,-3290.8,-3379.8,-3436.8,-3434.4,-3362.6,-3192.3,-2925.3,-2593.7,-2184.6,-1701.5,-1200.7,-697.38,-187.77,296.03,734.51,1123.7,1450.6,1710.9,1905.4,2041.6,2132.4,2174.2,2167.9,2133.8,2088.2,2036.2,1974,1903.7,1842.3,1790.6,1745.9,1717.5,1687.1,1637.9,1586.9,1530,1459.1,1400.7,1362.5,1337.4,1334.6,1346.5,1361.4,1390.5,1432.9,1471.9,1503.9,1539.2,1582.4,1619,1642.3,1661.2,1661.1,1627.8,1582.7,1534.2,1467.5,1388.4,1303,1198.5,1075.3,951.4,832.08,711.73,596.82,492.82,384.11,266.56,161.94,79.033,4.4454,-79.013,-174.89,-259.95,-319.6,-372.04,-430.21,-494.47,-561.97,-618.88,-669.5,-727.08,-777.1,-822.56,-884.77,-946.95,-999.72,-1061.9,-1124.6,-1179.6,-1243,-1315.1,-1392.5,-1472.4,-1539.7,-1602.7,-1679.2,-1760.7,-1840.8,-1922.2,-2010.4,-2118,-2229.3,-2318.4,-2400.5,-2494.6,-2597.2,-2707.8,-2823,-2939.1,-3059.4,-3177.1,-3289.4,-3398.3,-3489.9,-3560.8,-3608.7,-3595.1,-3484.7,-3281.7,-2989.3,-2599.7,-2136.5,-1636.2,-1098,-533.27,3.3437,499.21,973.77,1392.7,1727.7,1994.9,2188.6,2312.5,2397.8,2439.1,2431,2404.6,2371.9,2325,2269.2,2217.4,2185.2,2173.4,2166.9,2161.4,2155.9,2138.4,2104.6,2063.4,2021,1975.1,1931.2,1903.4,1892.9,1895.9,1907.8,1915.2,1926.7,1955.2,1975.7,1981.5,2000.3,2024.5,2030.1,2015.5,1982.1,1939,1894.7,1835.7,1755.1,1663.7,1564.2,1451.5,1330.8,1211.3,1087.1,954.88,834.05,721.59,589.48,451.29,338.81,246.37,158.26,72.648,-6.9769,-81.074,-157.68,-232.37,-299.7,-372.51,-441.61,-490.83,-546.48,-623.4,-694.94,-750.86,-809.04,-883.77,-965.02,-1034.7,-1104.6,-1182.3,-1248.2,-1316.8,-1408.1,-1498.3,-1582.2,-1670.5,-1753,-1844.5,-1951.6,-2037.1,-2106.6,-2198.9,-2301.3,-2393.8,-2488.5,-2588.1,-2683.9,-2776.7,-2875.8,-2982.1,-3082.1,-3178.6,-3289.7,-3409.7,-3528.1,-3646.7,-3756.7,-3857.5,-3959.3,-4049.2,-4110.2,-4133.1,-4094.4,-3969.5,-3741.3,-3396.3,-2945.3,-2425,-1873.2,-1301.6,-702.5,-107.89,428.55,906.94,1333.4,1676.7,1944.1,2163.3,2315.1,2397.7,2450.4,2481.3,2484.4,2478.6,2476.9,2481.5,2499.1,2527.1,2558.9,2597.6,2646.4,2703.9,2754.3,2769.4,2753.4,2737.1,2715.6,2669.7,2615.9,2570,2527.5,2495.9,2481.8,2472.7,2464.6,2465.2,2465.4,2448.9,2429.6,2424.5,2415,2389.5,2354.5,2297.6,2230.7,2178.5,2108.4,2005.7,1907.5,1803.2,1674.5,1553.6,1443.2,1324.3,1200.5,1076.6,972.21,885.72,776.89,668.24,597.86,522.68,431.14,363.92,300.61,216.25,139.52,80.143,21.33,-42.308,-109.18,-177.73,-247.45,-314.53,-382,-465.73,-557.67,-635.77,-710.14,-791.72,-870.67,-950.82,-1037.7,-1122.7,-1204.8,-1285.5,-1361.4,-1441.1,-1532.5,-1620.9,-1696.6,-1781.6,-1883.6,-1973.1,-2052.9,-2156.8,-2266.9,-2354.1,-2444.9,-2556.3,-2665.5,-2765.9,-2869.4,-2979.8,-3094.5,-3208.5,-3319.3,-3419.8,-3499.5,-3564.4,-3603.6,-3571.4,-3450.6,-3250.1,-2954.3,-2561.4,-2106.1,-1611.6,-1089.2,-559.78,-43.995,440.88,877.22,1249.9,1557.5,1810.8,2001,2115.3,2177.6,2206.3,2201.8,2189,2172.5,2130.5,2092,2086.6,2082.1,2065,2064.6,2079.9,2084.2,2072.4,2051.9,2013.8,1956.6,1905.4,1866.9,1825.7,1793.5,1781.6,1772.9,1767.8,1779.5,1798.2,1816.4,1841.6,1869.6,1883,1881.9,1882.7,1879,1850.6,1807.8,1760.4,1689.6,1595.2,1497,1398.5,1295.9,1191.2,1079.5,955.77,833.9,727.9,625.54,516.45,412.95,318.78,231.41,159.08,94.944,24.551,-43.781,-100.23,-156.04,-223,-287.43,-332.72,-377.84,-438.04,-492.98,-543.02,-605.47,-669.06,-731.9,-803.5,-867.13,-920.48,-984.75,-1057.9,-1129.9,-1204.4,-1281.5,-1358.2,-1433.2,-1505.8,-1577.3,-1646.4,-1719.2,-1808.4,-1906.2,-1994.4,-2079.8,-2172.9,-2263.9,-2357,-2471.7,-2592.5,-2694.4,-2794.2,-2907.5,-3015.7,-3109.7,-3198.5,-3278.7,-3329.2,-3329,-3268.8,-3128.1,-2877.4,-2527.9,-2117.5,-1655.2,-1146.1,-616.93,-91.196,417.26,891.96,1303.6,1631.5,1896.7,2114.4,2263.3,2353.6,2408,2408.1,2368.9,2341.2,2316.9,2273.1,2235,2215.2,2199.9,2190.8,2195.1,2203.5,2192.1,2151.9,2106,2063.9,2012.6,1962.6,1926.6,1895.1,1872.1,1862.7,1858.9,1868.3,1891,1908.4,1921,1932.7,1938.4,1943.4,1939.5,1913.6,1876.8,1831.3,1770.7,1701.2,1614.6,1504.2,1385.3,1266.8,1154.6,1043.7,912.83,778.37,665.43,552.07,432.83,328.55,233.45,146.43,66.911,-27.346,-120,-185.31,-252.54,-328.01,-381.64,-433.08,-502.49,-562.59,-617.79,-693.2,-768.88,-827.65,-883.9,-947.74,-1024.2,-1105.1,-1174.8,-1249.5,-1340.3,-1427.2,-1509.2,-1591.2,-1667.2,-1752.3,-1851,-1948.8,-2049.1,-2143,-2223.4,-2311.6,-2398.8,-2476.5,-2570,-2661.3,-2738.2,-2837.9,-2943.2,-3025.9,-3118.3,-3221.6,-3325.4,-3446.5,-3553,-3634.6,-3741.8,-3855.9,-3941.6,-4033.3,-4125.5,-4178.8,-4195,-4156.8,-4028.3,-3795.5,-3445.3,-2997.6,-2495.6,-1940.6,-1345.3,-756.19,-183.51,368.18,866.08,1295.8,1654.2,1934.3,2143.8,2292.3,2392.7,2458.4,2484.9,2486,2490.3,2490.8,2485.6,2500,2531,2566.6,2616.5,2673.2,2719.9,2761.3,2795.2,2803.2,2780,2740.6,2700.5,2660,2618.5,2586,2561.2,2532.1,2505.7,2495.6,2495.8,2495.1,2492.5,2482.7,2466.3,2452.8,2430.7,2385.7,2338.9,2298.5,2237.5,2157.2,2074,1974.5,1858.7,1748.5,1637.8,1514,1387.8,1262.8,1136.6,1023.4,924.66,822.63,714.72,614.83,538.09,485.85,425.96,340.73,266.9,215,149.84,77.361,17.306,-51.33,-130.87,-198.1,-259.31,-332.85,-415.05,-490.9,-562.94,-647.2,-736.24,-819.51,-907.62,-993.52,-1072.9,-1163.2,-1250.2,-1326.1,-1418.9,-1512.3,-1585.5,-1668.6,-1758.2,-1835.6,-1926.1,-2023.8,-2103.8,-2188.8,-2287.1,-2376.6,-2464.7,-2562.3,-2655.7,-2739.8,-2827.7,-2928.4,-3035.6,-3144.1,-3256,-3364.1,-3467.3,-3574.8,-3674.9,-3755.7,-3821.4,-3841.2,-3774.8,-3625.1,-3384.5,-3031.9,-2598.3,-2117.8,-1585.4,-1015.6,-444.07,106.61,613.94,1064.1,1451.6,1764.8,2008.3,2188.6,2299.5,2362.2,2398,2394.5,2361.1,2324.7,2289.2,2262.5,2248.7,2233.1,2224.6,2238.2,2254.6,2257.4,2253.6,2241.6,2210.3,2163.4,2117.8,2084.8,2065.2,2049.8,2028.8,2021.9,2049.7,2080.3,2088,2103.3,2138.2,2161.7,2166.6,2171.3,2172.1,2151.2,2111.7,2066.7,2013.4,1943.8,1859.5,1764.7,1662.4,1547.5,1421,1296.9,1167.1,1028.8,917.16,822.8,702.05,585.73,505.12,418.07,320.19,249.61,188.72,113.58,48.014,-1.4226,-58.193,-122.77,-183.51,-245.27,-307.85,-365.58,-426.75,-490.3,-545.59,-604.76,-679.89,-757.13,-825.78,-898.06,-986.48,-1076.1,-1152.7,-1236.3,-1327.1,-1402.1,-1484.5,-1587.2,-1673,-1750.1,-1844.9,-1934,-2016.3,-2106.4,-2188.7,-2274.3,-2372,-2455.1,-2540.7,-2651.7,-2751.5,-2835,-2938.1,-3052.7,-3160.8,-3274.2,-3392.4,-3502.2,-3604.4,-3699.8,-3776.8,-3817.3,-3803.3,-3716.4,-3538,-3253.9,-2866.2,-2401.2,-1883.2,-1314.9,-713.71,-126.79,418.36,920.8,1369.2,1748.8,2058.5,2302.1,2479.7,2586.8,2633.2,2645,2633,2598.2,2557.9,2520,2477.8,2439.8,2418.3,2415.7,2429.8,2445.1,2444.8,2431.5,2411.7,2383.5,2343.9,2297.2,2258.8,2239.2,2228.9,2218.9,2215.5,2222,2230.7,2240.7,2262.3,2290.6,2306,2308.7,2306.1,2287.3,2252.4,2214.1,2164.3,2094,2011.9,1919.4,1816.4,1710.1,1591.6,1457.9,1329.5,1207.7,1077.8,948.11,826.59,709.02,603.55,512.24,421.06,328.56,241.57,156.11,66.521,-18.108,-82.683,-139.91,-213.65,-287.41,-340.96,-395.32,-462.61,-528.56,-591.42,-657.45,-729.39,-808.22,-886.39,-961.91,-1045.6,-1140.9,-1236.4,-1318.7,-1398,-1494.8,-1594.1,-1681,-1780.7,-1893.3,-1988.6,-2075.6,-2173.9,-2270.7,-2358.3,-2445.3,-2536.4,-2631.2,-2725.5,-2815.1,-2901.3,-2990.8,-3090,-3190.8,-3284.2,-3380.7,-3490.8,-3610,-3726.2,-3829.8,-3932.1,-4049.6,-4172.7,-4284.5,-4381.9,-4467.8,-4537.6,-4551.4,-4462.4,-4270.7,-3982.2,-3579,-3077.4,-2521.5,-1929.6,-1309.1,-685.68,-87.032,479.55,1001.3,1437.4,1780.8,2067.4,2289,2428.1,2520.3,2578.3,2586.7,2576.7,2573.4,2552.6,2517.4,2504.9,2517.2,2531.2,2552.5,2597.5,2646.5,2677.5,2700.2,2707.8,2682.5,2651.7,2638.9,2616.4,2579.9,2562.4,2560.4,2554.4,2554.3,2561.2,2565,2573.3,2583,2584.4,2585.6,2584.4,2572.5,2552.5,2515.6,2462.6,2406.7,2329.7,2226.6,2131.1,2038,1918.4,1787.1,1666.7,1549,1420.6,1288.8,1172.9,1070.4,963.55,854.92,753.53,663.53,587.32,509.58,422.78,344.34,276.16,210.53,149.64,83.582,9.7712,-56.341,-119.63,-189.91,-257.41,-320.09,-384.68,-454.21,-535.39,-623.45,-701.43,-771.95,-850.35,-935.52,-1018.3,-1102.6,-1197.5,-1296,-1383.6,-1470.3,-1571.3,-1669.4,-1752.5,-1842.9,-1943.3,-2031.7,-2116.3,-2213.9,-2314.5,-2406.3,-2491.7,-2583.5,-2689.6,-2791.3,-2879.5,-2983.4,-3111,-3231.2,-3335.7,-3445,-3562,-3675,-3779.7,-3860.4,-3887.9,-3854.6,-3747.8,-3522.7,-3176.4,-2752.7,-2258.2,-1698.3,-1114.8,-527.47,49.259,583.64,1073.5,1507.8,1853.2,2128.3,2353.2,2493.2,2556.1,2589.8,2588.1,2540.6,2479.6,2418.7,2355.1,2299.2,2249.3,2207.1,2181.8,2156.8,2132.2,2126.3,2103.4,2047.3,2008.5,1979.7,1930.4,1909.6,1925.4,1928.1,1936.3,1971.1,2004.8,2043.9,2091.5,2128.8,2173.3,2214.9,2216.6,2212.2,2224,2205.2,2151.2,2095,2031.9,1950.2,1851,1743.3,1638.4,1517.7,1375.2,1247.9,1132.1,998.81,871.81,757.61,633.05,519.98,425.08,318.3,215.57,137.41,63.899,-8.8154,-77.497,-148.88,-213.39,-273.89,-342.48,-404.06,-454.5,-509.14,-568.67,-637.31,-716.68,-787.1,-847.5,-918.24,-1000.8,-1083,-1160.1,-1239,-1326,-1412.3,-1490.9,-1569.9,-1657.6,-1752.6,-1842.7,-1924.9,-2020.1,-2133.5,-2242.5,-2338.9,-2426.1,-2510.7,-2608.4,-2716.8,-2822.5,-2926.6,-3023.2,-3117.2,-3234.5,-3363,-3477.3,-3596.7,-3727.3,-3840.1,-3935.7,-4036.4,-4125.5,-4157.1,-4116.3,-4009.8,-3799.3,-3447.7,-2997.1,-2492.8,-1930.1,-1323.9,-709.4,-104.06,469.69,990.23,1453.1,1845.7,2155.1,2389.2,2555.7,2653.7,2695.2,2701.8,2679.9,2637.4,2594.4,2545.7,2484.4,2444.2,2430.3,2409.9,2395.6,2402.9,2404.3,2396.6,2383,2342.7,2294.4,2266.7,2245.7,2232,2237.6,2248.2,2260.2,2281,2303.3,2327.2,2354.9,2379,2398.4,2408.5,2403.7,2390.9,2370.9,2341.3,2299.8,2227.4,2128.1,2037.2,1946.2,1824.7,1691.2,1562.6,1427.5,1295.9,1174.6,1044.2,910.18,792.23,681.88,569.55,462.39,360.22,260.81,173.7,100.23,26.948,-47.905,-116.5,-185.16,-254.79,-311.26,-365.41,-438.24,-511.72,-570.9,-641.45,-724.92,-792.93,-861.97,-954.74,-1039.8,-1112,-1206.2,-1304.2,-1386.2,-1486.1,-1598.5,-1693.8,-1792.5,-1899,-1996.1,-2095.4,-2194.2,-2286.7,-2389,-2491.8,-2586.6,-2682.2,-2769.7,-2863.3,-2972.2,-3061.1,-3148.8,-3266.4,-3371.9,-3469.7,-3597.1,-3717.1,-3823.7,-3946.7,-4061.3,-4172.3,-4298.2,-4401.2,-4483.3,-4547.8,-4525,-4396.6,-4178.6,-3834.3,-3376,-2857.1,-2279.5,-1660.2,-1034.6,-409,186.17,720.87,1203.7,1617.2,1940.4,2192.2,2373.4,2482.2,2549.6,2582.6,2571.6,2540.7,2508.4,2466.6,2426.6,2413.6,2423,2433.5,2448.7,2478.3,2500.4,2496,2481,2467.2,2445.7,2416.2,2386.4,2365.6,2364.7,2375.8,2384.5,2401,2431.3,2455.5,2467.8,2482.9,2502.8,2521.5,2531.4,2521.3,2497.2,2467.1,2419.4,2357.9,2295.5,2213.5,2107.2,2003.1,1895.9,1767.4,1634.1,1504.5,1370.1,1240.1,1122.9,1007.8,887.09,767.9,663.32,571.03,480.38,395.23,313.96,229.49,155.68,93.813,24.145,-46.796,-106.56,-167.23,-235.12,-302.19,-361.37,-417.11,-484.17,-556.42,-620.9,-692.36,-771.43,-845.5,-934.42,-1035.6,-1113.1,-1181.9,-1273,-1370.5,-1461.2,-1551.8,-1640.6,-1732.6,-1829,-1917.8,-2007.2,-2106.3,-2201.3,-2294.3,-2393.5,-2488.8,-2592.1,-2708.4,-2806.5,-2904,-3040.6,-3176.7,-3284.9,-3402.5,-3524.8,-3632.8,-3741.4,-3820.5,-3832.9,-3785.9,-3651.6,-3393,-3031.8,-2587.3,-2068.7,-1510.7,-935.21,-354.36,200.67,709.3,1164.9,1558.6,1884.9,2139,2322.3,2446.3,2510.2,2516.9,2494.3,2456.6,2393.9,2315.1,2240.1,2167.5,2098.7,2051.3,2022,1992.3,1960,1918.7,1862.7,1816.2,1784.7,1738.7,1691.5,1679.8,1689.3,1706.6,1748.1,1800.8,1849.5,1904.8,1952.6,1986.5,2032.6,2075.2,2086.3,2086.1,2080.1,2053.8,2017.8,1968,1889.1,1795.6,1694.2,1575.6,1449.7,1329.6,1207.9,1073.4,934.88,808.16,685.74,559.15,438.37,325.4,223.89,138.77,49.644,-46.439,-124.04,-186.71,-251.17,-319.3,-390.5,-450.42,-497.38,-558.53,-629.65,-688.19,-744.04,-804.59,-865.79,-933.79,-1005.1,-1075.6,-1151.9,-1230.7,-1313.8,-1406.4,-1492.4,-1565.8,-1649.4,-1748.6,-1840.6,-1919.9,-2008.2,-2106.8,-2197.5,-2293,-2408.3,-2517.4,-2610.9,-2718.6,-2842.4,-2952.8,-3048.3,-3159.4,-3294.5,-3426.1,-3547.5,-3674.8,-3796.4,-3905.1,-4003.6,-4050.5,-4013.6,-3897.8,-3677.9,-3342.2,-2923.1,-2421.6,-1850.5,-1267.4,-682.35,-90.862,466.18,971.32,1418.1,1781.6,2073.4,2304.1,2456.8,2549.3,2598.3,2597.6,2574.8,2545.8,2492.1,2432.1,2390.1,2355.3,2329.4,2318.6,2310.4,2302.6,2296.6,2284.6,2263.7,2231.1,2186.8,2145.3,2120,2111.6,2115.5,2125,2138,2157.3,2181.7,2212.2,2245.8,2266.8,2276.2,2292.7,2301.6,2278.9,2242.9,2204.8,2148.2,2075.2,1984.9,1870.6,1754.4,1639.3,1508.6,1382.6,1261.8,1119.1,979.51,861.17,729.93,590.55,478.17,382.97,285.48,191.55,104.12,17.636,-64.651,-133.44,-195.06,-268.47,-350.87,-420.5,-474.33,-530.36,-598.1,-666.76,-730.08,-801.61,-881.26,-950.61,-1019.1,-1107.3,-1200.8,-1283.3,-1367.5,-1460.5,-1555.6,-1648.1,-1736.7,-1832.7,-1938.6,-2031.4,-2116.3,-2223.4,-2335.5,-2429.7,-2527.2,-2632,-2731.4,-2838.4,-2951.6,-3056.3,-3161.7,-3273.3,-3388.2,-3510.9,-3630.5,-3739.8,-3860.6,-3999.3,-4135.5,-4257.9,-4362.2,-4433.8,-4451.3,-4389.4,-4220.6,-3931.9,-3536.3,-3052.1,-2495.3,-1896.5,-1285.1,-671.76,-76.962,473.32,969.22,1393.8,1732.9,2004,2214.7,2349.5,2423.2,2465,2477.8,2467,2449.1,2423.9,2396.4,2386.1,2391.7,2402.2,2426.9,2464.8,2495.1,2516.1,2534,2534.7,2512.5,2485,2461.1,2433.5,2406.1,2395.4,2402.1,2410.7,2419.6,2434.4,2448.5,2459.4,2467.7,2464.1,2456.1,2453.8,2436.4,2398.8,2361.4,2307.9,2220.3,2130.4,2052.7,1957.2,1836.4,1710.2,1581.1,1446,1317.7,1196.4,1066.8,941.72,837.71,733.74,625.97,536.53,452.59,362.75,284.46,211.96,137.57,71.962,7.5974,-57.116,-117.19,-188.24,-258.06,-307.99,-367.86,-445.7,-519.89,-601.23,-686.26,-757.06,-832.81,-915.55,-988.22,-1067.6,-1155.2,-1235,-1325,-1426.2,-1514.1,-1598.7,-1691.8,-1781.1,-1873.7,-1975.9,-2068.3,-2154.8,-2258.9,-2372.3,-2472.9,-2566.5,-2672.8,-2795.8,-2918.6,-3029.2,-3147.3,-3281.7,-3398.2,-3497.6,-3617.2,-3723.5,-3763.1,-3748.4,-3664.6,-3459.6,-3147.9,-2760.3,-2288.3,-1755.9,-1205.7,-647.41,-95.588,424.73,899.05,1312.3,1661.4,1944.2,2141,2267.4,2363.3,2417.4,2414.2,2387.9,2355.3,2307.4,2255,2200.6,2139.8,2098.5,2090.4,2086.8,2066.1,2035.1,2005.4,1971.1,1921.4,1876.2,1851.2,1828.7,1820,1847.5,1879.7,1904.7,1946.9,1986.2,2012.8,2056.2,2093.6,2099.7,2108.1,2119.7,2103.2,2067.7,2019.3,1948.1,1874.2,1802,1698.6,1570.1,1451.3,1330.1,1192.7,1070.5,960.45,826.69,691.57,582.88,477.19,366.79,262.49,165.54,85.744,10.693,-75.553,-142.3,-189.65,-256.93,-329.52,-388.82,-455.47,-521.29,-572.26,-626.24,-691.62,-765.4,-841.01,-910.53,-987.98,-1076.7,-1154.9,-1225.3,-1302.8,-1385.2,-1472.4,-1561.4,-1648.8,-1742.1,-1835.9,-1925.1,-2020.8,-2118.8,-2211.7,-2314.1,-2427.5,-2535.9,-2639,-2747.9,-2862.3,-2974.3,-3089.8,-3220.9,-3358.9,-3487.4,-3604.6,-3715.7,-3821.5,-3906.9,-3945.1,-3925.8,-3832.9,-3625.7,-3294.4,-2872.2,-2384,-1843.1,-1267.9,-679.71,-105.68,434.77,928.41,1354.5,1714.5,2022.9,2257.7,2404.3,2496.2,2550,2556.9,2538.8,2520,2495.8,2465.3,2438.1,2422.3,2418.6,2414.3,2413,2429.2,2438.8,2426.5,2415,2392.3,2345.3,2306.2,2272.6,2237.3,2242.5,2273,2277.4,2281.5,2309.4,2334.7,2351.1,2359.8,2359.3,2364.6,2365.8,2339,2290.3,2233.8,2177.3,2116.2,2031.9,1927.2,1815.7,1694.3,1566.2,1436.8,1303.9,1172.4,1039.3,904.57,785.54,675.93,564.33,469.32,384.23,282.18,184.17,115.28,51.723,-24.79,-100.71,-171.3,-244.09,-317.5,-387.03,-449.89,-504.87,-563.64,-636.84,-715.73,-795.27,-879.65,-961.48,-1041,-1134.2,-1236.5,-1330.5,-1423,-1525.4,-1621.2,-1699.3,-1787.1,-1900.6,-2011.6,-2110.3,-2218.4,-2326.9,-2417.8,-2507.8,-2605.3,-2702.6,-2808.8,-2922.6,-3023.8,-3116.9,-3219.3,-3325.8,-3431.5,-3550.4,-3681.1,-3802.2,-3919.7,-4052.6,-4180.5,-4284.5,-4382.9,-4469.9,-4508.2,-4474.1,-4343.7,-4097.4,-3742.6,-3291,-2759.3,-2178.5,-1572.8,-967.77,-384.48,173.26,679.39,1107.2,1471.4,1770,1985.2,2141.5,2255.7,2313.5,2329.1,2332,2327.8,2310,2282.7,2273.2,2295.4,2319.9,2332.5,2355.5,2395,2433.4,2453.1,2446,2423.9,2402.1,2376.7,2345.8,2327.1,2331.3,2344.2,2356.6,2374.4,2387.6,2392.6,2411.7,2437.4,2444.9,2445.6,2442,2415.3,2380.3,2349,2299,2225,2139.4,2047.7,1950.1,1835.8,1702.4,1570,1440.7,1304.8,1176.1,1062.7,948.68,829.92,722.98,634.06,547.36,452.33,361.35,285.24,219.73,157.54,90.16,18.171,-48.202,-113.38,-180.12,-235.83,-292.04,-366.09,-437.75,-499.87,-575.27,-655.41,-723.17,-795.93,-880.76,-966.46,-1055.7,-1144.1,-1223.2,-1303.3,-1387.3,-1472.1,-1564.3,-1652.4,-1731.5,-1825.9,-1931.6,-2029,-2129,-2230.7,-2329.9,-2447.5,-2570.2,-2680.2,-2803.6,-2936,-3056.4,-3182.6,-3308.4,-3416.8,-3517.3,-3587.4,-3607.4,-3581.7,-3466.1,-3239.4,-2936.5,-2540,-2047.7,-1529.2,-996.5,-438.3,94.05,580.2,1035.1,1433,1751.1,1997.9,2184.4,2314,2384.9,2413,2414.3,2380.3,2335,2304.5,2250.3,2180,2154.2,2141.6,2104.6,2089.3,2083.2,2034.4,1977.9,1939.8,1887.1,1827.8,1796.4,1795,1807.5,1815.7,1830.2,1871.9,1911.5,1932,1968.9,2014.5,2034.2,2046.7,2059.5,2048.3,2018.1,1976.7,1922.9,1867.4,1791.1,1679,1570.9,1471.5,1346.2,1214.9,1095.2,961.83,825.77,705.09,581.91,462.44,359.17,255.09,151.67,58.922,-28.471,-102.83,-164.97,-229.42,-289.72,-350.8,-428.08,-498.82,-548.67,-601.54,-660.62,-714.8,-776.97,-853.68,-928.4,-992.27,-1058.8,-1141.4,-1227.3,-1301.8,-1379.4,-1469.1,-1552,-1630.8,-1727,-1827.5,-1916.4,-2012.7,-2114.8,-2203.3,-2296,-2399.6,-2491.1,-2585.4,-2696.2,-2797.2,-2893.8,-3006.5,-3121.8,-3238.8,-3364.1,-3485.1,-3602.3,-3720.4,-3837.7,-3956.9,-4062.7,-4145.4,-4202.8,-4189.1,-4069.8,-3851.6,-3519.6,-3079.5,-2573,-2003.5,-1387.8,-781.95,-195.33,377.67,903.06,1354.9,1732.6,2040.7,2277.2,2442.6,2560,2634.6,2657.2,2658.9,2656.7,2635.3,2610.9,2589.1,2565,2574.2,2612.4,2643.8,2676.2,2698.1,2695.7,2693.2,2669.3,2616.2,2589.8,2577.5,2547.2,2536.2,2537.5,2526,2534.9,2553.2,2552.3,2564.5,2584.9,2581.4,2573.7,2562.8,2533.5,2508.1,2475.4,2410.9,2345.3,2274.8,2161.7,2035.7,1921.4,1794.2,1665.1,1545.6,1414.7,1280.3,1144.7,997.9,873.21,776.67,671.54,567.63,477.93,381.22,284.65,204.36,132.44,60.904,-13.881,-82.697,-142.09,-213.89,-290.77,-352.3,-420.47,-497.36,-559.24,-627.48,-717.56,-801.56,-875.74,-961.79,-1061.7,-1163,-1260,-1360.3,-1467.5,-1570.5,-1666.1,-1764.7,-1874.5,-1991.5,-2093.7,-2177.9,-2276.9,-2391.7,-2493.5,-2590.1,-2691.4,-2786.4,-2886.8,-2991.6,-3079.4,-3174.1,-3295.3,-3407.5,-3504,-3613.3,-3731.5,-3847.3,-3968.8,-4097.6,-4227.1,-4349.8,-4459.3,-4558.8,-4646.9,-4693.9,-4655.5,-4505.9,-4245,-3882.1,-3422,-2871.5,-2266.1,-1651.4,-1028.8,-402.83,175.18,691.99,1167,1565.5,1870.7,2120.8,2314,2437.1,2518.3,2566.2,2577.2,2575.3,2580,2592.2,2606.2,2621.5,2649.5,2696.4,2760.1,2827.2,2875.5,2911.2,2938.8,2927.7,2890.4,2865.1,2830.8,2782.6,2760.5,2757.6,2751.7,2749.1,2744.2,2739.7,2747.5,2749.9,2742.1,2738.1,2725.9,2704,2684.7,2651.5,2598.5,2541.9,2468.9,2370.2,2268.2,2167.7,2057.1,1935.2,1801.8,1666.5,1540.6,1414.8,1292.7,1183,1066.1,947.87,852.37,758.46,660.29,584.64,510.09,417.72,336.9,264.13,183.55,119.02,66.294,-4.238,-79.906,-145.77,-220,-303.97,-376.72,-444.39,-529.35,-621.73,-704.76,-793.69,-895.37,-990.21,-1071.5,-1151.8,-1248.3,-1358.9,-1456.1,-1542.8,-1640,-1728.2,-1809.4,-1916,-2020.6,-2099.3,-2191.5,-2299.5,-2393.7,-2487.2,-2594,-2706,-2816.7,-2922.5,-3035.3,-3156.5,-3267.9,-3388.2,-3526.3,-3640.9,-3742.7,-3870.5,-3986,-4051.2,-4072.4,-4020.1,-3859.5,-3597,-3235.2,-2780.6,-2268.2,-1725.6,-1156.1,-571.8,-10.167,500.82,960.09,1356.6,1680,1942.4,2137.9,2265.9,2358,2407.9,2402.9,2384.2,2360.5,2309.5,2261.7,2238.9,2221,2205.3,2193.8,2185.1,2187.4,2185.4,2159.9,2118.3,2074.4,2043.6,2025.8,2004.2,1995.2,2014,2034.9,2058.6,2096.8,2125.4,2151.3,2193.6,2222.9,2235.8,2258,2261.3,2228.8,2195.8,2164.2,2110.4,2039.1,1955.2,1855.5,1741.8,1614.3,1482.4,1352.9,1218.2,1086.4,965.52,842.06,717.76,604.57,500.71,407.9,321.05,232.41,154.32,80.274,-4.9928,-76.607,-129.32,-195.11,-266.8,-328.07,-395.25,-463.15,-518.88,-582.76,-659.66,-728.07,-789.98,-862.98,-946.54,-1030.4,-1113,-1197.1,-1281.9,-1367.7,-1462.2,-1570.7,-1680.1,-1772.2,-1859.6,-1964.9,-2069.1,-2154.7,-2246.6,-2350.7,-2448.9,-2552.9,-2669.8,-2781.4,-2885.4,-2985.1,-3084.7,-3202.5,-3331.4,-3447.3,-3559.3,-3685.5,-3821.9,-3950.1,-4047.7,-4115.8,-4157.6,-4128.8,-3987.1,-3733.2,-3372.7,-2917.5,-2398.3,-1836.2,-1245.8,-649.06,-70.501,470.91,967.41,1401.9,1754.6,2040.3,2272.2,2435,2535.4,2594.9,2615.2,2608,2591.6,2562,2523.9,2502.5,2499.5,2499.5,2515.9,2551.9,2571.8,2577,2591.4,2583.5,2546.6,2522.3,2496.1,2452.8,2426.2,2413.5,2409.8,2433.9,2457.6,2468,2490.3,2506.6,2510.8,2529,2542.1,2536.2,2525.3,2490.3,2428.9,2372,2309,2222.6,2134.2,2041.6,1915.9,1773.9,1652.9,1535.8,1393.4,1247,1114.4,986.82,872.87,769.27,650.6,532.09,438.17,349.2,260.42,191.33,121.44,33.333,-39.301,-95.691,-174.1,-248.84,-289.57,-349.19,-442.88,-515.36,-577.44,-663.37,-742.79,-811.49,-896.79,-983.95,-1070.8,-1175,-1277.6,-1370.9,-1471.1,-1576.2,-1690.8,-1814.2,-1921.2,-2020,-2130.1,-2233.8,-2333.6,-2446.8,-2552.2,-2642.6,-2739.8,-2841.3,-2940.3,-3042.5,-3140.8,-3238.7,-3350.7,-3463.7,-3564.9,-3672.7,-3793,-3904.2,-4006.8,-4128.3,-4268.4,-4397,-4507.9,-4616.6,-4714.4,-4764.2,-4732.6,-4603.1,-4366.9,-4017.4,-3563.1,-3029.9,-2444.7,-1829,-1206.5,-601.34,-23.332,517.47,991.2,1385.7,1719.5,1990,2185.8,2323.7,2412.8,2458.8,2485.2,2494.7,2486.4,2476.9,2461.9,2453.7,2486.2,2532.8,2566.1,2609.7,2652.7,2677.9,2703.2,2704.9,2669.5,2643.6,2626.1,2593.1,2575.7,2578.8,2577,2581.3,2590.6,2588.8,2598.3,2624.1,2632.6,2631.7,2649.2,2656.2,2626.4,2596,2577.2,2531.9,2459.6,2379,2277.9,2163,2051.7,1932.6,1804.5,1675.3,1537.6,1402.1,1280.4,1160.5,1046.2,948.45,853.26,751.52,650.76,559.13,487.2,430.28,359.01,269.96,195.95,139.58,78.475,17.302,-45.412,-119.9,-183.91,-240.75,-319.78,-396.92,-458.86,-535.48,-612.31,-679.84,-771.84,-873.7,-957.8,-1041.8,-1127.7,-1210.6,-1303.2,-1399,-1491.2,-1584.2,-1673.5,-1762.8,-1854.1,-1943.3,-2043.3,-2152.8,-2253.2,-2346.2,-2441.1,-2541.3,-2645.7,-2745.9,-2855.5,-2987.7,-3117.4,-3238.8,-3368.7,-3493.9,-3609.6,-3719.4,-3796.8,-3834.7,-3829.2,-3724,-3494.7,-3174.8,-2770.1,-2280.8,-1743.4,-1182.4,-608.23,-45.204,482.38,963.15,1395.6,1769.3,2065.5,2292.7,2463.4,2565.3,2611,2632.6,2623.7,2578,2523.1,2473,2420.6,2376.7,2354.2,2337.2,2312.1,2294,2279.8,2239.6,2177.7,2121.2,2073.1,2037.1,2021.2,2013.8,2012.3,2027.2,2050.5,2072.5,2099.4,2130.6,2160.5,2193.8,2224,2234.2,2231.5,2226.2,2203.1,2161.6,2112,2039.7,1949.4,1863.6,1760.7,1626.6,1497.1,1377.2,1242.1,1101.8,963.93,818.97,687.17,575.69,458.14,345.47,253.67,151.67,43.47,-35.008,-103.79,-186.13,-268.19,-346.71,-412.6,-466.41,-539.9,-616.2,-664.4,-723.38,-808.06,-879.85,-941.77,-1014.6,-1091.4,-1168.8,-1252.6,-1346.7,-1443.3,-1526.8,-1606.9,-1702.2,-1810.4,-1922.1,-2021.8,-2106.8,-2202.5,-2315.9,-2427.8,-2530.3,-2622.9,-2719.2,-2837,-2952.5,-3043.9,-3141.1,-3256.8,-3359.8,-3456.7,-3580.6,-3708.5,-3813.7,-3937.4,-4094.3,-4232.1,-4345,-4469.2,-4583.2,-4652,-4674.4,-4621.7,-4444.1,-4138.2,-3722,-3206.2,-2631.2,-2035.2,-1407.4,-761.65,-156.24,398.5,919.95,1381.1,1752.3,2042.2,2276.4,2463.9,2584.4,2638.2,2660.6,2664.4,2652.4,2637.3,2610.3,2576.4,2566,2573,2583.4,2606,2630.6,2645.3,2659.6,2667.6,2655.5,2629.7,2601.5,2571.9,2542.4,2527.7,2531,2534.6,2547.2,2583.3,2608.8,2607.6,2613.3,2633.7,2650.8,2656.4,2635.2,2590.2,2551.2,2514,2449.2,2352.1,2235.2,2114.7,2004.2,1897.4,1779.3,1645.4,1503.1,1362.3,1228.7,1105.1,983.55,854.16,727.79,608.25,486.93,388.32,318.81,233.24,136.19,63.599,-11.81,-104.83,-182.39,-249.16,-323.57,-394.87,-460.54,-527.91,-605.19,-695.09,-778.2,-851.9,-937.47,-1031.3,-1121.4,-1208.5,-1295.2,-1394.1,-1498.7,-1586.2,-1679.3,-1797.8,-1909.3,-2005.1,-2105.2,-2205.2,-2304,-2409.4,-2516.3,-2626.3,-2737.6,-2839,-2940.5,-3051.2,-3162.2,-3277.2,-3400.4,-3522.6,-3646.6,-3776,-3898.1,-4019.3,-4158.7,-4296.7,-4399.1,-4466.4,-4493.2,-4434.2,-4262.2,-3977.6,-3573.2,-3075,-2536.5,-1965.7,-1365.6,-775.07,-200.82,360.33,859.52,1271.7,1627.3,1927.5,2145.5,2291.7,2395.8,2456.6,2468.4,2461.9,2455.6,2426.5,2383.9,2362.8,2351.8,2338.9,2338.4,2343.2,2348.3,2356.9,2345.6,2314.8,2293.7,2276.7,2250.5,2222.2,2200.9,2205.3,2238.3,2269.4,2286.6,2302.5,2325.7,2361.9,2396.2,2406.8,2409.3,2420.7,2420.6,2396.6,2357.8,2300,2226,2155.7,2074.3,1958.4,1839.3,1731.6,1601.6,1456.8,1319.9,1178.5,1044.5,928.71,807.31,686.45,578.84,475.03,390.31,319.23,229.1,138.92,69.76,2.5778,-62.153,-118.88,-180.62,-248.59,-315.36,-374.76,-430.86,-493.23,-551.98,-614.01,-700.8,-783.36,-842.99,-916.52,-1006.4,-1091.5,-1181.7,-1271.7,-1353.6,-1445.1,-1538.8,-1623.1,-1720.9,-1828.8,-1916.9,-1997.8,-2103.1,-2226.5,-2340.9,-2439.2,-2541,-2658.7,-2778.3,-2895.8,-3026.4,-3162.9,-3292.1,-3424.1,-3552.2,-3658.1,-3750.7,-3826.5,-3843.4,-3762.6,-3574.3,-3289.5,-2908.8,-2429.3,-1897.5,-1360.8,-803.55,-231.3,301.88,785.77,1234.6,1627.3,1944,2189.3,2371.9,2495.1,2560.1,2583,2582.7,2561,2520.1,2462.2,2395.8,2352,2330.6,2293.6,2252.4,2235.8,2213.7,2170,2134.3,2100.7,2045.7,1991.6,1969,1972.1,1979.6,1988.4,2013,2050.7,2082.5,2111.3,2145.9,2174.7,2194.5,2213.5,2223.4,2211.8,2184.2,2149.5,2099.4,2023.2,1933.5,1837.5,1721.6,1594.9,1472.7,1334.8,1178.2,1032.8,902.19,776.95,658.18,537.65,413.52,297.54,193.62,103.28,22.004,-66.027,-160.02,-242.47,-312.77,-386.47,-465.34,-539.53,-612.5,-683.4,-739.84,-803.53,-893.79,-968.63,-1018.4,-1096.8,-1193.1,-1264.4,-1344.3,-1447.9,-1533.4,-1611.7,-1708.5,-1805.2,-1906.9,-2017.3,-2104.5,-2186.7,-2295.1,-2398.8,-2491.4,-2599.3,-2709.3,-2813.6,-2923.2,-3030.2,-3141,-3264.7,-3387.3,-3510.5,-3636.9,-3758.6,-3893.1,-4036.4,-4159.2,-4279.5,-4407.7,-4499.8,-4539.6,-4530.1,-4426.9,-4187.9,-3821.5,-3358.4,-2826.3,-2242.4,-1624.8,-1005.5,-401.53,186.46,729.97,1188.7,1567.7,1893.5,2158.2,2346.1,2477.2,2567.6,2605.3,2605.6,2604.9,2597.2,2570.5,2548.7,2541,2541.6,2557,2581.2,2612.6,2658.5,2684.2,2669.7,2654.5,2644.8,2612.6,2573.6,2548.9,2535.1,2532.8,2537.9,2541.2,2542.2,2543.7,2551.3,2559.4,2560.8,2565.8,2570.4,2558,2533.4,2499.2,2449.9,2387,2300,2192.1,2089.2,1983,1855.1,1728.8,1612.4,1473.8,1317,1181.8,1057.5,910.64,772.05,670.29,569,460.62,371.77,286.64,194.43,115.65,49.61,-16.701,-90.25,-171.22,-249.84,-328.94,-406.74,-471.5,-545.31,-634.4,-705.97,-773.05,-859.12,-944.74,-1032,-1124.8,-1206.7,-1298.3,-1403.8,-1490.6,-1577.9,-1683.1,-1774.7,-1865.3,-1974.4,-2063.3,-2137.8,-2250.9,-2385.4,-2494.4,-2585.9,-2688.1,-2803.4,-2916.8,-3024.7,-3144.9,-3277.4,-3403.4,-3531.8,-3671.6,-3804.2,-3934.2,-4069,-4173.6,-4232.5,-4253.1,-4195.5,-4020.1,-3737.1,-3356.1,-2888.3,-2368.1,-1811.5,-1227,-650.37,-106.07,403.03,861.7,1263.5,1615.3,1893.8,2083.6,2222.1,2327,2377.4,2388.2,2381.8,2349.1,2304,2265.7,2228.9,2208.9,2211.4,2209.8,2206.9,2209.2,2198.9,2180.9,2151.2,2096.2,2049.4,2025.1,2001.2,1996,2017.4,2037.3,2060.6,2091.2,2114.9,2143.5,2176.5,2199,2220.3,2237.1,2240,2236.3,2213.3,2167.6,2120.6,2056.6,1962.2,1867,1772.1,1657,1532.4,1407,1270.7,1124.4,981.94,854.02,731.47,604.86,492.62,400.82,308.61,217.19,132.7,43.399,-40.142,-107.92,-179.82,-250.77,-305.66,-370.1,-446.66,-500.27,-541.73,-601.81,-672.47,-745.82,-819.59,-881.29,-944.12,-1022.4,-1098.5,-1172.5,-1255.8,-1337.5,-1421.1,-1511.8,-1592.2,-1673.2,-1770.7,-1861.2,-1948.9,-2062.5,-2177.3,-2272.7,-2378.2,-2497.8,-2612.8,-2740.4,-2888.3,-3027.9,-3152.2,-3278.4,-3408.2,-3536.4,-3650.6,-3720.8,-3723.7,-3639.2,-3443.7,-3144.7,-2758.5,-2285.1,-1758.1,-1213.7,-642.34,-67.671,456.27,933.72,1370.2,1734.1,2029.5,2270.5,2440.9,2546.2,2609.1,2636.6,2629.7,2588.4,2531,2484,2438.8,2391,2361.5,2340.8,2316.7,2303,2282.3,2239.5,2201.4,2163.6,2108.5,2065.1,2040.5,2017,2015.5,2037.6,2050.1,2062.4,2092.2,2118.4,2133.2,2141,2135.9,2132.7,2136.6,2116.1,2069.5,2026.9,1983,1915.1,1822.2,1715.8,1606,1489.6,1356.1,1218.5,1091.7,964.35,832.41,705.17,577.37,450.92,334.69,218.22,106.82,16.624,-77.399,-188.34,-280.05,-345.5,-415.01,-497.84,-579.82,-639.95,-684.65,-747.62,-820.07,-881.21,-957.55,-1048.9,-1126.2,-1203.2,-1287.5,-1369.7,-1467.7,-1570.3,-1651.6,-1739.5,-1846.8,-1946.2,-2041,-2140.9,-2236.6,-2337.1,-2450.4,-2564.7,-2672,-2773.8,-2881.8,-3003.1,-3116.9,-3217.2,-3328,-3443,-3547.1,-3667.2,-3808.1,-3936.9,-4060.5,-4201,-4342.6,-4469.9,-4586,-4687.1,-4755.2,-4752.7,-4645.9,-4429.3,-4104.3,-3676.7,-3166.5,-2590.3,-1971.8,-1348.7,-742.36,-156.34,395.72,880.36,1282.2,1628.6,1925.7,2148.1,2307.8,2422,2481.7,2505.8,2516.2,2516.2,2521.6,2525.1,2519.1,2534.5,2563.4,2579.1,2607.7,2654.7,2688.7,2704.7,2706.1,2696.4,2685.7,2669.2,2650.3,2638.5,2627.6,2621.5,2625.7,2632.4,2644.5,2661.5,2673.2,2676.9,2673.4,2671.7,2672.4,2656.2,2625.7,2588.6,2531.5,2461.1,2381.7,2280,2171.8,2058.8,1925.1,1803.9,1702.9,1573.9,1432.4,1317.3,1202.4,1077.3,965,856.15,746.11,646.35,553.51,476.85,414.01,332.28,247.62,192.5,133.02,53.346,-16.574,-87.348,-165.17,-226.98,-295.67,-388.38,-477.53,-563,-645.08,-710.93,-792.82,-896.03,-976.4,-1051.4,-1152.8,-1248.6,-1333.6,-1433.3,-1526.8,-1602.5,-1693.2,-1802.8,-1903.5,-1995.4,-2098.5,-2212.1,-2320,-2422.8,-2537.7,-2666.1,-2798.5,-2934.3,-3066.4,-3188.8,-3316.5,-3449.7,-3562.2,-3648.8,-3714.7,-3738.6,-3690.7,-3544.2,-3287.5,-2946.6,-2544.4,-2082.4,-1583.6,-1073,-553.86,-54.219,395.47,808.62,1186.5,1499.3,1745.7,1941.7,2083.1,2170.2,2219.4,2241.4,2239.9,2222.3,2198.2,2167.6,2130.5,2102,2088.4,2079,2073.6,2056.6,2001.6,1940.9,1907.7,1865.9,1816.9,1802.3,1792.1,1768.4,1775.6,1800.8,1815.2,1849.6,1892.2,1906.7,1923.9,1952.9,1962,1970,1984.9,1961.9,1909.8,1868.9,1817.5,1742.4,1673,1592,1475.8,1365.3,1267.3,1139.2,1002.3,896.22,793.58,670.64,548.67,443.19,343.89,236.3,137.3,73.014,14.942,-72.83,-164.31,-231.88,-287.19,-342.76,-406.83,-478.03,-538.95,-594.04,-660.11,-726.95,-786.68,-847.53,-909.34,-982.14,-1073.8,-1153.3,-1208.9,-1275.3,-1356.7,-1434.5,-1514.9,-1593.6,-1667.5,-1759,-1856.1,-1940.1,-2037.3,-2140.2,-2220.8,-2316.2,-2443,-2555.7,-2658.3,-2778.2,-2893.7,-3002.1,-3126.2,-3256.1,-3379,-3493.1,-3587.2,-3654.5,-3673.1,-3604,-3439.4,-3185.4,-2841.3,-2429.4,-1977.6,-1494.5,-986.22,-466.14,32.542,484.85,905.68,1285.4,1588.6,1833.4,2037.7,2177.7,2269,2337.2,2360.3,2344.9,2330.6,2309.6,2270.2,2245.9,2240,2216.1,2187.6,2184.1,2176.3,2144.6,2109.4,2069.1,2024.2,1989.4,1957.3,1932.6,1931.5,1943.7,1958.8,1968,1969.5,1987.9,2013.6,2022,2034.8,2046,2032.5,2024.8,2020.8,1985.8,1937.9,1880,1795.2,1713,1635.7,1527,1402.2,1290.7,1189.8,1088.9,969.51,831.26,709.37,609.15,500.71,388.17,290.26
