-5939.8,-6079.4,-6222.7,-6355.6,-6498.9,-6649.2,-6797.9,-6950.1,-7085.1,-7199,-7327.4,-7458.3,-7537.4,-7548.3,-7474.4,-7268.7,-6900.8,-6354.7,-5631.2,-4768.6,-3792.5,-2715.2,-1593.2,-485.38,590.77,1612.1,2539.6,3345.4,4013,4548,4975,5301.2,5522.3,5658.6,5745.3,5802.9,5838.9,5857.6,5868,5890.6,5929,5967.2,6010.5,6049.7,6041.9,5992.7,5917.3,5777.4,5585.1,5390.3,5175.1,4941.7,4734.9,4543.1,4363.9,4229.2,4121.1,4031.6,3985.4,3963.3,3950.6,3955.5,3961.5,3966.6,3970.4,3945.2,3901.6,3856.4,3778.5,3668.8,3553.8,3417.3,3250.8,3074.5,2894.4,2711.2,2521.7,2320.6,2119.9,1924.3,1724.7,1524,1327,1136.5,963.14,804.98,644.73,471.32,296.58,144.37,4.206,-150.71,-301.91,-428.16,-547.04,-666.6,-784.94,-909.35,-1029.8,-1135.5,-1235.1,-1335.8,-1437.1,-1529.4,-1614.9,-1719.3,-1839.4,-1948.5,-2055.4,-2167.1,-2271.5,-2386.3,-2519.9,-2648.4,-2769.5,-2893.4,-3019.2,-3149.1,-3278.9,-3406.8,-3542.8,-3676.1,-3799.9,-3934.8,-4077.3,-4214.4,-4364.4,-4522.1,-4657,-4784.5,-4934.1,-5093.2,-5246.1,-5399.7,-5561.3,-5732.4,-5898,-6043.4,-6188.9,-6348.1,-6491.8,-6605.3,-6700.3,-6755.5,-6723.6,-6570.1,-6268.6,-5794.4,-5143.4,-4344.3,-3427.8,-2414.5,-1349.8,-278.94,787.31,1802.1,2694.3,3470.6,4149.1,4692.6,5106.1,5426.4,5645.4,5774,5858.8,5907.9,5919.6,5921.4,5919.5,5898.5,5878.1,5880,5869.2,5820.5,5766,5699.6,5571.8,5396.6,5206.7,4987.1,4746.8,4521.5,4312.3,4127.2,3992.1,3893.4,3805.7,3740.8,3708.4,3689.7,3675.8,3676,3682.1,3677.9,3666.6,3647.8,3602.9,3531.9,3456.8,3372.1,3251.2,3101.3,2943.9,2768.8,2575.2,2383.7,2186,1972.4,1763.6,1562.5,1354.3,1142.5,940.18,755.62,576.06,386.73,209.76,50.181,-120.26,-286.41,-434.27,-590.36,-735.97,-854.52,-990.51,-1134,-1242.2,-1348.3,-1473.1,-1583.7,-1684.4,-1791,-1890.1,-1985.7,-2090.3,-2199.3,-2308.1,-2415.1,-2520.7,-2626.6,-2732.2,-2848.2,-2978.2,-3101.4,-3218.2,-3354,-3501.2,-3630.1,-3746.5,-3881.5,-4031.9,-4164.6,-4285.6,-4421.7,-4555.9,-4681.1,-4824,-4966.3,-5087.9,-5224.1,-5372,-5497.9,-5631.7,-5799.6,-5968.5,-6123.5,-6281.2,-6447.3,-6621.8,-6799.4,-6961.2,-7096,-7216.7,-7332.1,-7417.9,-7441.8,-7373.8,-7165.8,-6789.9,-6254.1,-5550.8,-4681.5,-3687.1,-2601,-1465.6,-344.01,746.13,1791.1,2723.8,3519.1,4204.7,4758.4,5159.8,5462,5701.6,5864.1,5963.5,6035,6079.6,6098.6,6121.3,6156.4,6186,6209.7,6237.3,6254.5,6243.5,6202.5,6117.8,5971,5779.1,5569,5343.1,5111.3,4886.6,4666.5,4478.3,4348.5,4236.9,4129.8,4071.4,4042.5,4005.3,3987.4,3984.4,3965.2,3947.7,3926.8,3873.9,3803.8,3720.4,3612.6,3492.1,3349.2,3173.1,2987.4,2798.9,2599.3,2391.1,2175.6,1964.6,1765.4,1569.3,1384.8,1209.2,1019.5,827.09,650.61,482.25,324.95,181.54,36.323,-117.37,-272.85,-417.96,-548.37,-678.95,-813.24,-938.54,-1056.7,-1169.1,-1267.4,-1363.9,-1475.8,-1584.8,-1673,-1768.9,-1886.8,-1986,-2066.6,-2177.4,-2306.9,-2421.4,-2536.6,-2657,-2775.5,-2906.3,-3038.7,-3159.4,-3283.6,-3408.8,-3534.8,-3673.4,-3804.8,-3920.4,-4042.8,-4174.6,-4313.7,-4452.8,-4574.6,-4702.8,-4854.7,-4999.6,-5141.2,-5301.2,-5463.5,-5626.6,-5791.3,-5938.5,-6084.1,-6241.5,-6385.2,-6512.6,-6631,-6720.6,-6758,-6706.5,-6518.9,-6173.4,-5659.3,-4974.9,-4145.7,-3202.4,-2175.5,-1108.3,-44.352,978.8,1931.6,2792.4,3539.1,4162.5,4672.2,5070.5,5357.5,5555.2,5688.2,5765.3,5796.5,5798.1,5787.2,5780.8,5780.5,5777.8,5779.6,5783.7,5755.5,5682.8,5580.1,5430.9,5230.4,5019,4799.8,4553.3,4321.2,4134.6,3967.1,3822.6,3723.6,3650.4,3596,3574.9,3568.8,3563.1,3571.4,3586.4,3586.8,3574,3553,3516,3450.2,3347.1,3216,3070.4,2903.8,2718.5,2537.8,2352.3,2132.3,1899.5,1689.2,1484.1,1270.9,1072.2,887.63,705.52,537.1,379.38,219.59,65.239,-85.602,-240.95,-385.15,-512.22,-639.13,-770.65,-901.33,-1029.1,-1151,-1268.8,-1387.9,-1510.5,-1639.5,-1768.6,-1885.7,-1996.8,-2115,-2234.1,-2348.6,-2470.7,-2600.2,-2714.7,-2814.8,-2926.2,-3048,-3162.9,-3278.4,-3403.2,-3526.5,-3650.6,-3787.3,-3928,-4062.2,-4200.6,-4345.5,-4482.7,-4618.9,-4767.5,-4911,-5043.5,-5191.1,-5354.3,-5510.8,-5662.3,-5819,-5978.8,-6137.1,-6288.6,-6439.3,-6595.8,-6742,-6871.1,-6985.8,-7061.6,-7078.3,-7018.2,-6814.5,-6427.1,-5887.5,-5193.2,-4324.3,-3334.8,-2283.6,-1191.4,-94.624,964.93,1946.6,2808.3,3550.5,4183.3,4684.1,5064.6,5369.9,5598.1,5732.4,5809.8,5876.9,5927.2,5947.1,5968.2,6010.2,6053.2,6099.5,6158.3,6203.4,6211.8,6167.2,6054.1,5894,5706.4,5479.1,5233.1,5006.6,4792.3,4582.8,4399,4247.6,4131.1,4055.6,3997.3,3934.8,3892.7,3885.7,3880.8,3860.5,3838.4,3808,3753.8,3679.4,3583.6,3463.8,3327.5,3168.8,2987.8,2806.5,2620.9,2418,2217.4,2021.3,1812.7,1611.1,1429.4,1244.2,1053.7,872.66,699.62,537.83,385.56,226.49,68.973,-67.588,-202.83,-356.26,-499.94,-620.97,-744.62,-863.01,-965.97,-1089.7,-1225.4,-1324.7,-1408.1,-1511.2,-1623.8,-1741.5,-1857,-1959,-2066.5,-2181.8,-2288.3,-2395.9,-2506.4,-2618.4,-2752.6,-2895.6,-3014.6,-3126.7,-3260.7,-3401.6,-3524.3,-3642.7,-3779.9,-3920.1,-4051.5,-4189.7,-4323.5,-4445.7,-4577.6,-4707.3,-4827.2,-4964.7,-5104.9,-5232.2,-5377.8,-5533.6,-5677,-5827.9,-5978.9,-6114.1,-6257,-6400.2,-6519,-6634.1,-6748.1,-6820,-6825.3,-6737.6,-6504,-6097.3,-5528,-4805.5,-3938.8,-2952,-1888,-805.03,255.08,1270.3,2197.2,3000.3,3686.8,4259.6,4716.7,5069.4,5316.9,5481.4,5600,5662.3,5681.9,5705.9,5714.7,5708.1,5743.1,5790.1,5800.2,5811.6,5827.6,5801.4,5717.9,5565.9,5357.7,5134.2,4900.3,4662.7,4443,4232.4,4048.4,3919.1,3808.5,3705.1,3645.9,3617.8,3598.9,3601.4,3611.3,3609.3,3599.3,3572.3,3529.5,3486.1,3421.3,3313.7,3186.6,3055.4,2901.4,2722.6,2538.8,2342.2,2124.2,1915.1,1719.7,1511.6,1308.8,1124.6,928.91,732.75,564.06,404.2,241.27,73.527,-101.31,-254.6,-391,-545.24,-689.83,-812.14,-954.46,-1101.4,-1223.9,-1349.4,-1478.7,-1594.1,-1713.9,-1837.7,-1944.3,-2041.9,-2152.4,-2277.5,-2390.1,-2481,-2585.8,-2710.3,-2827.1,-2950.3,-3088.7,-3205.7,-3306.1,-3431.3,-3570.8,-3698.6,-3833.8,-3979.5,-4102.7,-4220.5,-4371.7,-4521.3,-4643.3,-4783.7,-4945.6,-5088.2,-5228.7,-5391,-5558.7,-5725.8,-5889.6,-6045.5,-6206.5,-6367.1,-6508.3,-6636.2,-6759.3,-6870.7,-6945.4,-6932.2,-6797.2,-6531.5,-6100.2,-5477.8,-4697.5,-3796.7,-2791.1,-1717.8,-628.59,441.44,1456.8,2367.8,3151.6,3827.7,4400.3,4854.4,5201.2,5453.2,5622.6,5751.3,5854.5,5923.9,5992.5,6066.2,6111.5,6159.8,6240.4,6313,6370.6,6423.4,6425,6352.4,6231.7,6063.6,5839.8,5584.7,5327.1,5071.3,4820.3,4596.9,4411.1,4252.3,4125.1,4033.2,3962.7,3914.5,3891.6,3880.6,3871.7,3852.8,3816.4,3776.3,3728.3,3651.3,3551.1,3437.6,3303.7,3148.9,2982,2812.6,2638.7,2439.6,2219.8,2012.7,1817.8,1615.9,1417.3,1231.5,1056.3,890.14,717.89,543.84,395.54,256.47,100.49,-46.693,-172.98,-301.59,-433.85,-561.75,-687.24,-810.43,-937.19,-1065,-1181.2,-1290.8,-1399.9,-1505.9,-1611,-1715.2,-1822.8,-1935.5,-2040,-2144.6,-2262.4,-2368.5,-2463.8,-2578.2,-2699.3,-2818,-2957.9,-3111.8,-3253,-3377,-3493.4,-3619.1,-3754.9,-3885.7,-4014.3,-4143.9,-4267.6,-4394.4,-4530.1,-4667,-4804.9,-4941.2,-5074.8,-5217.2,-5361.8,-5494.5,-5630.1,-5786.9,-5954.4,-6111.3,-6255.6,-6413,-6587.4,-6735.4,-6847.7,-6972.6,-7107.2,-7188.8,-7189.5,-7102.2,-6891.4,-6519.7,-5964.5,-5231.5,-4362.8,-3384.9,-2311.4,-1202.5,-122.42,911.69,1880,2735.3,3445,4017,4482.1,4851.4,5113.4,5281.9,5401.3,5495.7,5555.3,5584.3,5614,5657,5706.4,5768.7,5837.1,5885.1,5906.7,5903.1,5856.7,5751.3,5584.5,5375.5,5150.8,4913.5,4671.6,4448.4,4245.5,4070.9,3949.4,3865.8,3801,3772.8,3771.3,3763.3,3752.7,3748.7,3735.7,3702.6,3655.7,3604.6,3539.6,3434.5,3298.4,3163.5,3020.8,2847.4,2654,2449.6,2235.3,2029.7,1836.8,1640.6,1445.7,1260.3,1074.1,890.03,715.84,541.08,366.7,204.62,45.791,-115.22,-264.87,-405.86,-554.96,-712.52,-861.38,-990.19,-1115.9,-1252,-1375.6,-1483.7,-1603.3,-1720.5,-1813.3,-1911.9,-2035.9,-2155.7,-2253.8,-2357.5,-2487.8,-2619.5,-2736.5,-2857,-2975,-3089.6,-3224.4,-3352.1,-3460.2,-3599.7,-3750.2,-3863.6,-3981.1,-4118.6,-4249.9,-4397,-4551.4,-4681,-4823.4,-4995.9,-5157.1,-5311,-5487.6,-5671.4,-5841.5,-6002.8,-6154.5,-6294.5,-6440.3,-6583.9,-6690.6,-6765.5,-6798.7,-6714.9,-6479.1,-6097,-5540,-4812.6,-3953,-2967.5,-1902.1,-834.06,217.39,1225.8,2136.4,2939.9,3634,4207.3,4680.3,5052.5,5316.5,5522.9,5694,5803.1,5881.7,5966.6,6029,6072.1,6137.1,6214.7,6285.3,6351.8,6396.9,6395.7,6330.2,6187.7,5994.4,5775.8,5513.3,5223.8,4968.1,4751.4,4549.2,4371.1,4217.4,4084.3,4002,3971.1,3947.4,3922.8,3917.4,3916.7,3897,3862.8,3821.3,3760.2,3669.7,3559.7,3433.5,3282.9,3113.8,2932.2,2737.5,2541.3,2342.8,2131.7,1925.1,1729.5,1529.8,1335.8,1153.5,968.57,790.74,630.43,473.05,314.64,162.45,13.139,-141.46,-292.77,-421.3,-544.99,-688.62,-817.62,-913.8,-1016.8,-1136.5,-1264,-1402.6,-1524.1,-1617.8,-1715.8,-1818.8,-1920.7,-2036.4,-2153.7,-2265.5,-2391.8,-2522.7,-2636.6,-2748,-2876.2,-3011.6,-3141.9,-3277.6,-3419.3,-3549.8,-3679.6,-3819.6,-3951.6,-4089,-4243.7,-4372.7,-4477.8,-4610.8,-4760.5,-4895.7,-5026.6,-5154,-5276.3,-5401,-5516.6,-5634.9,-5782.6,-5930.4,-6057.1,-6204.2,-6375.3,-6528.2,-6671,-6825.1,-6969.9,-7097.2,-7219,-7330.5,-7423.5,-7477.1,-7439.4,-7267,-6932.2,-6409.1,-5712.1,-4875.4,-3897.5,-2804.4,-1678.2,-555.84,546.46,1560,2456.9,3256,3917.6,4432.1,4862.8,5199.7,5415.4,5577.8,5718.2,5809,5880.4,5959.8,6030.4,6103.1,6194.4,6301.7,6416.9,6507.2,6554.3,6565.8,6512.1,6379.4,6202.1,5979.2,5713.2,5455.6,5214.9,4978.8,4778.6,4612.5,4456.1,4336.8,4266.5,4219.5,4193.6,4187.8,4186.7,4183.3,4166.4,4132.3,4089.4,4025.8,3938.8,3842.7,3724.1,3573.1,3410.3,3241.4,3060.1,2873.3,2684.2,2491.6,2302,2116.8,1929.2,1745.5,1584.7,1436,1270.4,1099.1,943.55,794.4,645.55,498.08,351.32,211.66,70.811,-73.084,-198.56,-314.8,-435.34,-543.18,-648.6,-760.85,-859.07,-962.41,-1087.5,-1201,-1305.6,-1430.8,-1573.1,-1726.6,-1882,-2031.6,-2196.6,-2377.7,-2555.8,-2742.1,-2935,-3111.3,-3283.4,-3462.4,-3628.4,-3784,-3947.9,-4116.3,-4283,-4449.4,-4609.3,-4765.2,-4929.3,-5097.6,-5269.1,-5458.6,-5661.7,-5857.7,-6039.6,-6205,-6355.2,-6499.3,-6641.2,-6787,-6941.4,-7088.4,-7211.7,-7310.7,-7383.2,-7420.2,-7389.6,-7240.5,-6946,-6491.2,-5851.2,-5035.5,-4090.3,-3049.2,-1944,-823,269.66,1288.8,2197.8,2995.8,3680,4231.7,4670.9,5024.4,5281.4,5458.8,5594.9,5687.8,5752.5,5824.3,5894.9,5971.7,6078.3,6178.2,6251.3,6317.3,6348.3,6332,6287.1,6171.3,5965.8,5724.8,5468.7,5204.3,4959,4730.4,4524.1,4357.8,4219.1,4116.6,4064.1,4035,4021.3,4025.7,4025.8,4020.9,4009.4,3974.6,3930.3,3874.6,3778.5,3658.9,3538.8,3395.8,3217,3021.8,2828.7,2636.3,2434.3,2229.1,2027.7,1826,1634.6,1460.4,1279.8,1083.7,897.88,730.87,559.23,384.06,224.72,63.157,-109.22,-260.05,-396.6,-543.41,-677.95,-798.62,-923.22,-1036.7,-1149.5,-1272.5,-1371.6,-1464,-1588.1,-1705.8,-1800,-1910.7,-2034.8,-2149.7,-2262.1,-2378.7,-2505.8,-2643.3,-2774.2,-2901.3,-3038.1,-3180.2,-3326.4,-3477,-3621.9,-3767,-3915.5,-4047.5,-4170.5,-4310.5,-4449.1,-4571.3,-4702.1,-4839,-4962.8,-5089.9,-5227.4,-5355.7,-5471.7,-5583.9,-5702.2,-5831.2,-5959.3,-6086.1,-6218.9,-6348.4,-6475.8,-6615.5,-6763.7,-6904.4,-7028.2,-7144.9,-7267.7,-7383.5,-7482.7,-7561.6,-7586.3,-7530.1,-7368.4,-7038.9,-6516,-5827.5,-4982.6,-4005.3,-2939.3,-1802.5,-645.11,457.78,1483.4,2414,3213.6,3884.7,4440.3,4880.2,5223.7,5491.4,5688.4,5828,5930.5,6011.6,6084.8,6160.6,6246.1,6349,6476.2,6619.1,6746.6,6830.5,6862.6,6840.6,6754.3,6593.2,6368.4,6111.3,5851.9,5612.7,5398.7,5202,5031.3,4893.1,4782.6,4719.2,4695.6,4666.6,4644,4648.3,4644.4,4633.6,4628.9,4596.4,4541.2,4477,4372.3,4244.6,4122.2,3979,3816.5,3645.3,3454.8,3272.8,3100.5,2905.1,2717.3,2554.2,2380.4,2210.4,2054.6,1881.4,1708.9,1563.7,1425.7,1288.2,1153.3,1013,877.58,753.01,632.76,520.34,413.63,311.62,222.2,135.74,48.264,-28.2,-107.12,-194.12,-263.37,-329.1,-422.5,-512.51,-582.35,-673.88,-785.81,-881.84,-969.4,-1060.6,-1152.7,-1258.9,-1374.9,-1479.9,-1578.7,-1682.2,-1792.2,-1909,-2019.1,-2121.2,-2233.9,-2338.1,-2410.9,-2497.6,-2616.2,-2714.3,-2797.7,-2894.7,-2979.1,-3070.3,-3181,-3258.6,-3331,-3430.4,-3519.4,-3626.8,-3746.2,-3835.8,-3954.4,-4076.7,-4157.7,-4271.2,-4370,-4431.4,-4531.1,-4586.8,-4629.8,-4705.2,-4619.1,-4442.3,-4211.1,-3677,-3017.3,-2268.9,-1193.3,-154.53,898.11,2234.2,3212.3,4189,5563.4,5342.3,3421.7,2731.2,3332.3,3391.9,3345.6,3580.4,3543.7,3560.6,3729.8,3732.4,3783.7,3863.6,3856.6,3961.9,4067.3,4092.3,4175.4,4195,4115.6,4025.6,3848.4,3628.4,3433.5,3206.9,3000.8,2829.1,2649.1,2532.6,2469.1,2399.3,2370.6,2374.2,2371.7,2388.7,2416,2441.4,2468.3,2463.4,2431.4,2397.9,2336.8,2246.5,2153,2039,1896.6,1751.5,1595.8,1414.1,1232.4,1062.1,881.21,699.04,535.75,368.85,188.81,26.35,-117.52,-263.36,-398.5,-519.18,-650.27,-787.67,-910.96,-1026.5,-1142.7,-1255.7,-1361.7,-1458.6,-1556.9,-1659.8,-1747.5,-1826.4,-1917.7,-2005,-2083.1,-2174,-2269.9,-2359.7,-2452.2,-2539.2,-2623.5,-2721.6,-2820,-2917.2,-3030.8,-3146.3,-3257.1,-3376.2,-3490.5,-3602,-3727.1,-3850.3,-3974.7,-4113.4,-4235.8,-4344.4,-4475.5,-4609.8,-4728.5,-4850.8,-4966.7,-5066.3,-5171.8,-5287,-5402.1,-5515.1,-5619.3,-5716.2,-5818.3,-5932.7,-6057.9,-6183,-6309.8,-6453.1,-6602.3,-6740.5,-6874.7,-7002.8,-7122.1,-7243,-7351.6,-7431.2,-7488.2,-7491.4,-7373.4,-7102.5,-6672.6,-6063.8,-5268.4,-4321.5,-3272.9,-2151.3,-990.56,150.81,1233.9,2236.1,3113.7,3842.1,4437.2,4914.2,5282.7,5553.8,5747.4,5902.7,6030.2,6112.8,6178.5,6259.2,6340.4,6428.5,6545.2,6667.1,6770.1,6858.2,6922.5,6942,6901,6786.2,6601,6372.4,6123.8,5865.3,5615.7,5392.8,5195.1,5027,4893.3,4774.4,4675.7,4629.2,4618.7,4607.9,4599.5,4594.5,4578.7,4547.6,4497.8,4431.8,4350.3,4237.9,4097.7,3945.9,3772.4,3575.2,3375.3,3176.5,2971.9,2760.8,2544.7,2336.2,2144.2,1957.9,1774.7,1599.2,1426.8,1258.5,1096.7,939.48,791.28,649.33,507.53,371.02,239.62,114.05,-2.8996,-127.99,-259.17,-369.31,-471.18,-589.06,-706.74,-811.77,-913.58,-1021.7,-1140.5,-1254.8,-1356.3,-1467.9,-1591.9,-1715.4,-1849.9,-1988,-2107.6,-2230,-2372.9,-2510.7,-2639.2,-2781.1,-2925.9,-3058.6,-3203.7,-3366,-3514.6,-3651.3,-3797.1,-3943.7,-4084.1,-4226.7,-4373,-4521.6,-4664,-4794.8,-4928.9,-5062.6,-5180,-5297.8,-5427.9,-5552.5,-5665.3,-5770.3,-5874.9,-5999.5,-6140.6,-6275.1,-6409.2,-6555,-6702.9,-6849.9,-6993.2,-7119.1,-7234.9,-7355.7,-7469.6,-7557.2,-7594.5,-7536.3,-7342.5,-6987.2,-6451.9,-5742.3,-4874.8,-3868.9,-2779.1,-1659.7,-526.9,577.95,1586.7,2476,3244.7,3879.3,4384.5,4775,5060.8,5268.2,5418.4,5515.2,5581.2,5641.7,5693.9,5743.5,5811.8,5895.2,5978.1,6061.3,6140.9,6196.3,6205.9,6151.4,6028.2,5851.3,5636,5394.5,5145.7,4901.6,4671.7,4478.6,4330.3,4209.2,4110,4039.5,3996.1,3979.3,3975.9,3962.7,3945,3932.7,3908.2,3860.6,3788.9,3690.6,3578.1,3453.5,3303.4,3136.3,2962,2777.4,2588.1,2387,2172.6,1969.5,1772.4,1566.4,1371.7,1187.7,1003.4,838.44,684.85,516.34,344.08,182.72,33.452,-109.32,-259.97,-402.25,-517.89,-640.55,-784.72,-919.34,-1037.2,-1147.4,-1254.8,-1368.9,-1480.1,-1581.7,-1688.8,-1799,-1907.5,-2026.8,-2151.2,-2273.7,-2398.4,-2515.2,-2628.8,-2752.7,-2873.7,-2993.7,-3124,-3241.3,-3348.2,-3477.8,-3615.7,-3741.5,-3872.9,-4008.8,-4141.5,-4292.4,-4462.3,-4626.6,-4789.2,-4966.1,-5145.4,-5311.8,-5473.4,-5637.2,-5792.8,-5934.5,-6073.6,-6219.1,-6357.3,-6459.4,-6510,-6497.9,-6381.1,-6114.6,-5691.2,-5108.7,-4359.9,-3474,-2494.4,-1449.3,-384.96,649.35,1629.6,2513.8,3260.4,3886,4406.7,4810.2,5115,5338.9,5477.9,5571.3,5655.9,5709.7,5733.4,5763,5802.5,5840.9,5883.8,5936.7,5990.8,6016.8,5986.8,5894.9,5747.7,5555.3,5319.3,5046.2,4777.6,4536.7,4301.9,4085.6,3918.7,3787.8,3686.3,3630.4,3603.6,3577.4,3555.1,3548.9,3546.3,3525.3,3492.8,3456.8,3393.6,3295.4,3181.4,3051.8,2900.6,2734.9,2558.7,2371.9,2168.2,1947.6,1728,1513.7,1302.3,1107.9,925.09,737.38,553.68,377.82,204.04,42.458,-106.62,-257.45,-411.68,-560.6,-697.85,-831.19,-972.3,-1113,-1244.4,-1368.2,-1480.8,-1587,-1696.4,-1807.5,-1925,-2046,-2158,-2271,-2387.9,-2502.2,-2631.3,-2765.1,-2876.7,-2991.5,-3124.7,-3248.6,-3364.2,-3484.1,-3611.6,-3758.4,-3902.8,-4020.9,-4147,-4296.2,-4439.5,-4578.1,-4722.9,-4859.2,-4989.1,-5134.8,-5294.3,-5444.5,-5591.4,-5762.9,-5943.5,-6101.7,-6257.4,-6424.4,-6577,-6722.9,-6880.4,-7021.1,-7133,-7238.6,-7310.6,-7280.8,-7120.1,-6827.2,-6371.4,-5716.4,-4885.7,-3939.5,-2903.5,-1796.6,-684.78,378.83,1380.7,2282.3,3052.9,3709.1,4242.5,4641.1,4952,5196.6,5357.6,5465,5547.5,5601.3,5650.5,5712.1,5773.7,5846,5932.1,6008.8,6074.9,6121.3,6111.9,6037.6,5911.3,5733.6,5503.4,5233.5,4950.3,4677.5,4421.4,4190.8,3999,3842.9,3716.6,3627.1,3575.2,3546.3,3528.1,3521.9,3521.8,3501.8,3455.4,3406,3350.2,3260.4,3144.1,3019.1,2872,2702.9,2528.7,2337.1,2123.2,1916.7,1719.8,1516.6,1323,1138.7,944.1,760.81,601.41,433.72,259.57,109.75,-24.615,-167.21,-318.37,-466.31,-605.15,-744.09,-883.66,-1008.2,-1122.7,-1239.7,-1351.2,-1453.3,-1551.9,-1652.2,-1758.9,-1861,-1953.5,-2046.1,-2129.1,-2211.8,-2320.5,-2421.5,-2497.5,-2600.2,-2722.8,-2819.1,-2912.6,-3028.5,-3155.2,-3287.6,-3409.7,-3524.9,-3662.4,-3805,-3933.2,-4074.1,-4225.2,-4366.4,-4517.3,-4689.6,-4865.3,-5033.5,-5195,-5358.8,-5528.2,-5683.5,-5815.1,-5944.2,-6082.2,-6208.3,-6288.8,-6288,-6171.5,-5919.6,-5520.5,-4957.1,-4229,-3365.8,-2403.5,-1379.4,-341.08,673.29,1636.6,2507,3246.3,3858.6,4361.9,4754.4,5050.1,5271.6,5407.1,5464,5496.7,5520.5,5518.5,5514.9,5527.2,5537.3,5547.2,5563.1,5558.8,5514.5,5430.9,5297.1,5096.4,4842.4,4570.9,4297.2,4023.7,3776.8,3571.7,3385.3,3220.3,3114.7,3063.2,3024.7,2991.5,2981.8,2994.2,3006.7,3005.1,2989,2957.8,2911.1,2846.2,2748,2621,2492.1,2350.7,2170.5,1971,1774.4,1571.5,1365.9,1169.8,976.6,776.25,572.88,386.72,220,41.209,-152.08,-323.06,-465.86,-605.43,-755.66,-916.41,-1075.6,-1221.5,-1356.9,-1491.1,-1630.5,-1770.1,-1900.8,-2022.4,-2131.8,-2233.6,-2343.5,-2448.7,-2540.6,-2646.4,-2762.7,-2860.6,-2951.4,-3052.2,-3158.9,-3265.6,-3363.1,-3458.6,-3568.6,-3685.4,-3804.8,-3931.7,-4058,-4184.4,-4313.8,-4445.1,-4593.5,-4748.9,-4885.3,-5023.2,-5176.8,-5332.8,-5503.9,-5687.1,-5855.8,-6021.9,-6192,-6342,-6474.8,-6604.6,-6730.9,-6848.7,-6924.1,-6916.6,-6808.3,-6561.5,-6135.2,-5532.5,-4761.8,-3835.3,-2801.7,-1704.2,-573.83,524.78,1535.2,2448.3,3255.7,3936.7,4493.2,4942,5289.1,5538.5,5715.7,5848.4,5939.3,5999.2,6061.1,6127.7,6189.3,6268.7,6364.1,6445.3,6520,6584.2,6589.2,6523.5,6399.2,6200.4,5940.7,5663.2,5377.8,5086.5,4812.9,4571.7,4358.1,4170,4024.5,3929.8,3861.2,3811,3793.7,3785.8,3762.9,3739.2,3708.1,3650.7,3578.4,3489,3365.8,3221.5,3067.1,2895.4,2712.5,2523.6,2321.3,2115.7,1919.7,1723.6,1526.2,1341.8,1164.5,986.38,812.69,637.41,463.66,307.47,151.62,-20.806,-187.97,-337.57,-476.74,-612.18,-747.77,-869.24,-983.43,-1120.3,-1251.5,-1353,-1464.4,-1572.9,-1652.5,-1750.8,-1863.6,-1952.9,-2054.8,-2174.6,-2280.9,-2396,-2517.4,-2626.1,-2749.2,-2880,-3000,-3131.1,-3265.9,-3396.8,-3539.1,-3671.4,-3791,-3923.1,-4052.4,-4177.8,-4313.2,-4437.8,-4562.6,-4709.7,-4848.3,-4970.6,-5099.9,-5233.9,-5373.8,-5520.2,-5660.3,-5806.6,-5968.3,-6124.4,-6269.6,-6416.7,-6561.5,-6689.3,-6800.8,-6912.3,-7020.5,-7092.9,-7101.6,-7026.6,-6829.1,-6461.7,-5906.6,-5184,-4314.1,-3312.7,-2225.3,-1107,-1.7842,1034.8,1970,2808.4,3528.8,4112.5,4590,4970.4,5244.8,5454.9,5628.5,5741.2,5803.3,5859.3,5923.8,5997.3,6085,6181.5,6276.3,6358.5,6413.4,6429.5,6394.8,6288.5,6100.7,5854.1,5581,5294.9,5012.2,4754.4,4519.3,4310.5,4150.4,4031,3936.4,3878.8,3848.8,3823.9,3814,3814.1,3796,3760.5,3711.1,3634.7,3537.2,3429.3,3303.9,3160.7,3009.6,2850.7,2672.7,2475.7,2280.3,2094.7,1909.4,1729.6,1553.6,1367.1,1192,1044.9,890.91,722.34,569.57,425.81,277.26,136.08,-1.5083,-141.5,-270.86,-386.93,-496.1,-605.23,-721.05,-829.93,-922.02,-1016.6,-1117.6,-1208,-1292.3,-1380.9,-1472.3,-1570.3,-1674.8,-1773.5,-1866.2,-1964,-2066.6,-2171.3,-2284.3,-2405,-2522.4,-2634.9,-2751.8,-2873.6,-2988.7,-3094.9,-3213.4,-3354.7,-3496.3,-3631.4,-3779.3,-3936.4,-4093.6,-4260.8,-4424.8,-4571.3,-4723.7,-4881.6,-5018.7,-5153.1,-5299.3,-5430.2,-5550.2,-5664.8,-5725,-5704.6,-5590.4,-5315.2,-4858.8,-4272.2,-3552,-2688.2,-1747.2,-777.04,207.06,1154,2021.9,2793.5,3443.9,3983.4,4436,4778.9,5005.6,5159.8,5265.3,5321.6,5343.1,5345.5,5338.4,5329.9,5325.7,5332,5342.1,5328.3,5276.4,5188.6,5048.3,4839.9,4582.2,4298.2,4005.3,3731.7,3489.8,3270.6,3085.1,2949.9,2852.4,2783.8,2758.1,2769.1,2781.1,2784.1,2795.6,2803.7,2783.4,2746.7,2701.8,2625.8,2520,2405.5,2277.9,2130.2,1966.6,1784.8,1588.3,1388.9,1188.8,989.76,795.89,599.35,398.38,214.86,56.279,-102.08,-269.66,-432.66,-590.86,-748.18,-902.99,-1057.8,-1204.3,-1339.4,-1476.5,-1606.8,-1725.1,-1851.5,-1970.7,-2067.6,-2176.1,-2295.1,-2397.9,-2499.8,-2599.2,-2684.3,-2784.3,-2894.5,-2983.7,-3076.5,-3186.6,-3287.5,-3387.2,-3500.3,-3618.4,-3748.4,-3883.6,-4003.7,-4124.8,-4256.7,-4384.8,-4522.1,-4675.3,-4824.5,-4974.9,-5137.2,-5303.7,-5475.1,-5647.3,-5809.1,-5962.6,-6104.7,-6242.1,-6389.1,-6519.2,-6614,-6693,-6732.1,-6677.8,-6499.6,-6161.3,-5651.1,-4990.2,-4171,-3212,-2185.7,-1122,-42.092,973.91,1884.1,2706.9,3426.9,4015.6,4490.5,4875,5170.9,5388.4,5550.5,5675.6,5775.7,5856.1,5920.4,5985,6063.7,6147.5,6225.3,6295.5,6350.8,6375.1,6338.4,6220,6045,5833.6,5566.7,5258.9,4957.9,4675.5,4417,4199.8,4015.6,3866.1,3771.2,3712.5,3666.4,3640.1,3622.6,3599.3,3582.3,3565.3,3531.2,3484.3,3414.1,3310.1,3197.6,3079.8,2931.1,2758.5,2579.1,2387.1,2182.7,1976.8,1778.8,1591.6,1406.3,1218.4,1031.7,843.33,659.12,491.01,331.35,170.25,14.804,-125.92,-256.21,-392.82,-536.29,-668.85,-795.31,-923.25,-1037.9,-1150.1,-1274.4,-1381.2,-1466.4,-1565.6,-1675.3,-1778.8,-1885.7,-1994.5,-2101.4,-2215.3,-2331.1,-2445.1,-2562.5,-2676.7,-2791.1,-2917.2,-3046.8,-3176.9,-3314.8,-3449.6,-3573.6,-3699.4,-3834.7,-3975.5,-4114.4,-4243.9,-4363.8,-4485,-4619.8,-4759,-4885.4,-5008.1,-5135.2,-5258,-5383.4,-5515.3,-5645.6,-5785.5,-5931.9,-6071.8,-6222.9,-6376.8,-6509.5,-6646.1,-6784.4,-6896.7,-7015.1,-7131.4,-7176.2,-7147,-7030,-6744.8,-6278.4,-5655.2,-4860.1,-3917.5,-2878.3,-1774.2,-656.22,436.14,1470.4,2383.6,3173,3868.2,4425.7,4841.1,5177.1,5427.3,5588.7,5721.5,5829.4,5900.4,5974.5,6058.4,6143,6246.1,6348.1,6433.1,6525.7,6603.8,6617,6562.7,6446.4,6262.1,6025.1,5759.4,5481.9,5206.5,4943.8,4707.1,4506.1,4336.2,4196.4,4089.7,4009.5,3957.8,3934.7,3914.9,3893.5,3888,3874.5,3823.8,3756.3,3683.7,3590.1,3470.5,3327.3,3174.6,3022.9,2849.1,2653.7,2468.9,2289,2100.6,1914.9,1731.7,1555.3,1387.9,1210.9,1039.4,891.18,734.42,566.72,419.19,280.39,137.16,-0.25654,-139.37,-277.26,-393.86,-500.82,-617.64,-733.22,-836.26,-933.78,-1030.9,-1129.1,-1230.1,-1328.1,-1423.4,-1527.6,-1636.8,-1745,-1860.7,-1974.8,-2080.3,-2196,-2322.8,-2450.2,-2582.1,-2706.6,-2823,-2957.4,-3094.3,-3207.5,-3322.4,-3455.2,-3585.8,-3709.1,-3834.8,-3961.3,-4075.7,-4183.7,-4311.9,-4449.3,-4565.3,-4683.7,-4827.1,-4969.5,-5102.9,-5242.3,-5388.3,-5538.7,-5688.5,-5833.9,-5979.4,-6113.5,-6235,-6364.2,-6488.8,-6592,-6673.6,-6684.7,-6571.1,-6328.5,-5930.5,-5347.4,-4605.8,-3729.9,-2746,-1716.5,-676.43,354.86,1329.7,2217.4,2998.6,3647.2,4164.4,4559.1,4847.3,5067.7,5218.9,5288.2,5323.4,5348.1,5343.9,5338.5,5353.8,5369.7,5392,5418.1,5409.4,5362.5,5291.3,5175.5,4994.4,4755,4489.3,4229.2,3970.5,3712.4,3491.1,3321.3,3190.3,3100.4,3045.5,3013.6,3015.7,3044,3066.9,3080.2,3090.5,3090.3,3075.6,3044.7,2993.7,2916.4,2805.2,2673.5,2538.2,2381.6,2196.1,2009.1,1827.6,1636.8,1443.3,1262.4,1091.6,917.42,738.61,565.72,397.86,231.72,76.811,-68.968,-217.08,-360.66,-494.09,-627.53,-759.62,-886.04,-1022,-1161.3,-1272.2,-1371.6,-1491.8,-1598.1,-1679.3,-1788.4,-1909.3,-1995.6,-2086.9,-2200.1,-2294.3,-2383.7,-2488.4,-2584.1,-2678.7,-2789.9,-2900.9,-3010.4,-3126.5,-3239.8,-3353.3,-3475.9,-3599.5,-3721.2,-3853.3,-3998.5,-4142.2,-4284.7,-4440.7,-4601,-4755.4,-4921,-5097.1,-5264.8,-5428.5,-5582.4,-5711.3,-5839.9,-5979.9,-6089.8,-6150.8,-6164.1,-6080.3,-5843.4,-5445.6,-4887.7,-4169.8,-3318.1,-2364.5,-1341.9,-306.66,691.41,1636.8,2511.4,3277.1,3915.6,4437.4,4847.8,5144.4,5343.5,5477.4,5567.3,5618.6,5636.3,5637.5,5643.7,5656.6,5667.9,5690.3,5724.1,5729.9,5696.4,5635.4,5510.4,5305.8,5071.4,4814.2,4516.5,4224.3,3971,3742.2,3546.1,3389.7,3260.2,3166,3112.4,3091.7,3103.5,3130.3,3151.4,3171.6,3187.9,3187.1,3164.6,3115.5,3038,2934.2,2804.7,2662.1,2508.4,2326.1,2125.4,1928.8,1727.9,1519.2,1317.3,1124.1,939.7,766.29,592.19,413.81,243.3,86.09,-63.316,-216.6,-375.45,-523.86,-663.7,-811.89,-957.22,-1087.9,-1219,-1351.8,-1474.2,-1589.2,-1704.6,-1826.7,-1944.8,-2033,-2109.4,-2215.1,-2336.4,-2443.1,-2537.9,-2625.7,-2718.7,-2829.6,-2941.1,-3046.9,-3162.6,-3283.4,-3406.9,-3538.7,-3662.8,-3779,-3905.6,-4032.6,-4153.7,-4286.7,-4425.5,-4552.3,-4679.1,-4818.9,-4958.6,-5090.4,-5231.2,-5389.6,-5549.8,-5705.8,-5869.8,-6046,-6224.1,-6388.5,-6542.8,-6701.5,-6847.8,-6967,-7071.9,-7128.1,-7076.4,-6908.1,-6592.3,-6076.8,-5384.3,-4544.5,-3555.2,-2464.5,-1334.9,-199.89,895.08,1919.2,2842.3,3611.6,4237.7,4760,5151.5,5408.2,5584.2,5703.2,5773.9,5809.6,5811.2,5801.9,5810.1,5833.8,5872.7,5922.8,5969.4,6014,6043.4,6022.4,5943.1,5814.4,5638.6,5423.2,5173.4,4899.4,4629.1,4380.8,4156.4,3962.9,3807.7,3690.3,3605.9,3545.6,3505.9,3488.5,3484.4,3483,3490.3,3501.6,3487.5,3439.5,3374.7,3290.6,3177.7,3042.9,2886.8,2711.6,2527.1,2329,2123.3,1924.3,1715.3,1494.6,1291.6,1098,894.73,703.94,531.97,360.61,193.28,31.175,-129.42,-272.78,-402.12,-539.34,-679.42,-816.75,-958.67,-1088.9,-1197.9,-1311.2,-1437.7,-1558.4,-1663.9,-1759.1,-1860.6,-1978.1,-2091.8,-2193.9,-2299.6,-2404,-2503.2,-2608.4,-2710,-2809.5,-2926.3,-3042.7,-3146.8,-3265.2,-3394.9,-3517.6,-3641.1,-3760.5,-3874.7,-4007.1,-4149.1,-4279.7,-4411.1,-4547.1,-4675.6,-4802.5,-4938.2,-5085.9,-5238.1,-5381.3,-5529,-5691,-5843.2,-5987.2,-6143.7,-6295.5,-6435.8,-6586,-6731,-6847.5,-6941.7,-6990.8,-6938.9,-6751.5,-6408.1,-5882.9,-5174.1,-4315.9,-3345.4,-2288.6,-1182.5,-76.505,985.81,1964.5,2829.6,3568.6,4170.8,4636.3,4987.8,5242.4,5406.8,5498.1,5534.1,5530.7,5507.7,5472.8,5434.4,5416.3,5421.5,5431.6,5441.5,5443.1,5409.7,5330,5209,5042.5,4824.9,4568.3,4299.5,4048.2,3828.9,3632.2,3451.6,3307,3207.2,3126.8,3057.9,3025.7,3030.9,3046.4,3061.4,3074.2,3073,3055.6,3031.3,2991.9,2918.5,2816.2,2699.3,2562.6,2406.1,2236.4,2045.8,1843.6,1650.2,1454.7,1250.3,1050.7,854.3,660.95,477.91,297.01,117.9,-55.263,-229.92,-397.31,-553.82,-718.2,-881.63,-1028,-1172.7,-1317.1,-1448.4,-1575.6,-1706.2,-1837.5,-1965.9,-2078.9,-2182.9,-2297.2,-2407.4,-2504.3,-2608.5,-2711.9,-2802.3,-2905.4,-3015.3,-3102.3,-3191.5,-3306,-3418.3,-3523.4,-3642.4,-3766.3,-3882.9,-4009.7,-4158.3,-4314.3,-4469.7,-4637.8,-4821.8,-5005.1,-5177.9,-5343.9,-5508.7,-5671.4,-5825.5,-5977.8,-6131.6,-6250.8,-6299.9,-6272.3,-6136.1,-5837.9,-5367.4,-4740,-3958.3,-3040.5,-2030.8,-971.3,94.467,1113.8,2062.5,2937.4,3698.1,4303.9,4780.8,5154.6,5409.5,5566,5667,5709.3,5701.3,5683.2,5658.5,5621.8,5591.8,5568,5547.1,5540.3,5525.2,5466.5,5364.9,5223.2,5030.1,4796.2,4547.8,4294.6,4043.6,3811.8,3602.7,3420.8,3285.8,3186.2,3099.1,3041.5,3020.2,3015.9,3025.4,3032.9,3029.5,3040.5,3046.1,3006.4,2939.6,2862.4,2768.1,2652.3,2497,2316.5,2141.3,1944.9,1727.2,1531.2,1338.6,1127.8,926.46,732.45,534.7,344.82,156.49,-30.347,-203.97,-373.8,-543.45,-708.6,-873.23,-1030,-1179.6,-1334.1,-1481.5,-1614.3,-1745.6,-1869.5,-1984.5,-2112.8,-2250.1,-2374.9,-2491.7,-2605.2,-2710.3,-2817.4,-2929.5,-3034.9,-3136.6,-3239.5,-3346,-3465.6,-3585.5,-3688.5,-3798.7,-3927.3,-4047.6,-4163.6,-4294.7,-4429.9,-4563.9,-4699.5,-4831.4,-4975.1,-5136.1,-5285.9,-5431.1,-5599.5,-5772.8,-5942.8,-6132.9,-6322.5,-6484.4,-6645.2,-6809.8,-6950.6,-7074.3,-7170.6,-7177.2,-7058.9,-6806.9,-6385.8,-5775.3,-5000.2,-4083.6,-3037.4,-1905,-761.01,347.99,1412.9,2405.1,3278.2,4014.5,4610.4,5065.7,5404.8,5651.6,5811.3,5899.9,5937.6,5940.6,5940.7,5951.1,5952.7,5958.7,5997.7,6042,6063.8,6076.2,6066.5,6005.9,5894.7,5726.9,5507.3,5271.3,5022.3,4756.2,4510.8,4300.5,4114.6,3965.2,3848.1,3752.9,3694.4,3663.6,3643,3640,3643.2,3635.8,3623.5,3597.6,3553.6,3500.2,3417.7,3295.3,3151.4,2988.9,2817.9,2652.7,2463.9,2245.6,2041.4,1845.1,1627.5,1414,1218.4,1015.7,810.56,618.03,429.2,245.95,76.755,-89.255,-257,-415.2,-563.84,-713.81,-860.97,-995.57,-1128.9,-1267.2,-1391.2,-1499.1,-1611.8,-1730,-1844.5,-1954.8,-2063.6,-2177.8,-2294.6,-2409.5,-2535.5,-2664.5,-2773.8,-2880.2,-3002.9,-3131.7,-3258.4,-3378.6,-3498.7,-3632,-3763.3,-3887.3,-4022.6,-4157.9,-4289,-4432.8,-4571.2,-4698.7,-4839,-4976.8,-5106.1,-5256.8,-5420.2,-5576.1,-5731.2,-5888.3,-6059,-6248.8,-6425.9,-6586,-6754.2,-6914.6,-7050.8,-7177.4,-7278.6,-7314.6,-7261.5,-7084.9,-6736.7,-6195.3,-5471.1,-4583.6,-3555.2,-2425.5,-1252,-81.8,1052.6,2109.6,3053.2,3873.5,4557.8,5093.5,5502.8,5804.9,5995.4,6101.6,6165.5,6193.5,6195.9,6194.7,6189.4,6192.3,6214.6,6232.2,6247.3,6275,6279.6,6235.7,6145,5992.7,5794.7,5580.5,5336.4,5074.7,4833.6,4608.3,4399.4,4228.4,4088.7,3977.9,3902.7,3848.9,3819,3823.8,3832.9,3822.1,3814.2,3814.1,3786.6,3724.4,3649.5,3556.6,3442.9,3322,3175,2995,2817.3,2633.8,2424.3,2219.7,2016.5,1795.6,1595.1,1410.9,1201,997.76,821.47,638.43,463.07,307.92,139.7,-27.603,-164.04,-290.68,-423.56,-560.78,-701.47,-830.71,-950,-1074.9,-1193.2,-1301.1,-1414.7,-1525.8,-1624.9,-1726.3,-1842,-1967.3,-2075.5,-2158,-2260.1,-2398.3,-2523,-2620.8,-2724.7,-2844.6,-2980,-3120,-3241.7,-3359,-3495,-3635.3,-3767.9,-3898.2,-4031.5,-4170.9,-4308.9,-4447,-4595.8,-4739.2,-4873.7,-5022.2,-5173.6,-5314.1,-5463.7,-5622.7,-5779.6,-5937.5,-6089.1,-6235,-6385.6,-6532,-6668.8,-6794.2,-6896.6,-6970.5,-6985.8,-6875.7,-6600.4,-6157.4,-5544.2,-4761.1,-3833.7,-2800.6,-1688.7,-545.4,555.78,1587.7,2545.8,3388.9,4106.1,4703.1,5143.7,5443.9,5661.6,5788.3,5826.5,5828.3,5800,5737.9,5669.2,5598.8,5532.3,5489.8,5454.8,5395.1,5304.2,5185.3,5033.6,4837.5,4602.4,4357.2,4113.6,3866.5,3636.3,3454.6,3316.9,3201.3,3119.7,3085.8,3069.2,3051.1,3050.3,3068.3,3095.1,3122.9,3124.6,3098.7,3072.6,3028.7,2941.2,2832.7,2722.1,2601.4,2456.7,2280.8,2096.1,1920.7,1731.7,1523.9,1322.1,1126.1,928.52,737.73,551.85,365,184.85,13.648,-159.25,-331.25,-485.95,-632.66,-792.59,-950.49,-1090.3,-1227.9,-1361.1,-1475.1,-1588.4,-1714.7,-1832.9,-1936.6,-2046.6,-2161.5,-2263.7,-2366.1,-2480.2,-2583.4,-2671.5,-2763.7,-2861,-2959.8,-3056.4,-3149.4,-3259.2,-3383.8,-3498.4,-3612.4,-3733.4,-3853.3,-3987.2,-4134.4,-4284.7,-4452,-4622.9,-4783.3,-4957.9,-5141.5,-5313.2,-5482,-5644.5,-5797.9,-5954.2,-6101.2,-6224.5,-6310.9,-6314.7,-6191.9,-5918.2,-5473.4,-4854.4,-4073.3,-3156,-2142.1,-1062.9,42.971,1117.7,2119.2,3025.6,3815.3,4465.1,4970.1,5360.9,5657,5841.4,5931.3,5970,5953.9,5878,5783.8,5702.1,5628.4,5553.1,5483.3,5431.2,5379.6,5293.2,5161.7,4990.4,4783.3,4546.3,4286.6,4025.1,3788.9,3575.3,3375.4,3213.2,3100.9,3012.7,2944.7,2922.9,2935.4,2948.4,2964.5,2987.6,2996.9,2992.9,2978.2,2929.5,2854.8,2779.8,2684.5,2551.4,2399.2,2229,2038.2,1840.6,1631.5,1414.3,1208.1,998.16,776.1,568.82,368.73,153.66,-55.736,-252.02,-455.97,-658.28,-843.05,-1022.2,-1202.5,-1376.7,-1540.8,-1693.7,-1842.5,-1996.1,-2142.7,-2270.5,-2394.5,-2527.6,-2656.3,-2769.8,-2880.2,-2994.2,-3100.8,-3202.4,-3311.9,-3420.1,-3519.1,-3624.2,-3734.4,-3837.4,-3942.9,-4055.4,-4170,-4295.4,-4422.1,-4535.1,-4654,-4789.7,-4929.4,-5072.9,-5217.3,-5362.9,-5527.9,-5704.5,-5875.8,-6055,-6242.4,-6420.7,-6592.7,-6758.7,-6907.5,-7040.3,-7152.9,-7211.4,-7169.6,-6990.9,-6637.8,-6083.1,-5345,-4449,-3403.6,-2268.3,-1109.6,68.757,1223.2,2271.7,3213.3,4045.5,4715.5,5238.7,5655.6,5956.9,6156.4,6279.2,6327.5,6330.2,6316.1,6291,6273.2,6264.9,6256.2,6263.4,6279.5,6277.6,6255.2,6189.2,6057.8,5890.1,5691.7,5444,5176.5,4915.5,4658,4421.5,4215.9,4030.6,3877.7,3773.7,3709.1,3659,3615.4,3603.4,3622,3628.4,3621.6,3618,3587.4,3520.1,3443.6,3355.4,3247.4,3124.9,2975.7,2795.9,2598.6,2385.8,2166,1955.5,1743.9,1518.1,1297.9,1095.8,891.08,677.13,470.26,269.37,68.966,-126.8,-322.15,-509.54,-678.47,-852.49,-1038.5,-1202.5,-1340.2,-1478.3,-1622.3,-1760.9,-1884.3,-1999.8,-2125.5,-2251.6,-2357.2,-2455.9,-2567.3,-2682.2,-2787.7,-2899.9,-3037.3,-3171.4,-3273.1,-3375.2,-3501.9,-3625.7,-3741.8,-3862.4,-3980.9,-4114.3,-4272,-4416.5,-4542.8,-4682.4,-4831,-4977.2,-5124.8,-5272.2,-5436,-5624.5,-5809.5,-5991.6,-6190.3,-6388.5,-6574.9,-6754.3,-6916.3,-7070.3,-7230.9,-7360.8,-7413.6,-7370.5,-7198.9,-6847.9,-6292.6,-5544.9,-4624.2,-3560.8,-2411.7,-1221.1,-15.846,1147.9,2219,3178,3991.6,4644.2,5164.7,5558.7,5822.9,5989.6,6080.6,6107.4,6098.9,6066.6,6015.9,5971,5942.1,5930.3,5934,5932.1,5923.3,5914.9,5867,5754.1,5604.3,5422.3,5197.2,4949.6,4696.6,4452.5,4239.5,4045.4,3854.3,3689.7,3569.7,3485.3,3424.5,3378.7,3354.2,3352.5,3345.9,3319.3,3285.5,3246.1,3196.9,3137.7,3054.4,2937.9,2798.5,2641.2,2467.5,2286,2095.1,1887,1668.4,1448.6,1228.5,1013.5,808.66,602.08,386.73,181.13,-6.3667,-190.34,-370.91,-542.58,-711.7,-865.82,-997.23,-1135.6,-1284.7,-1413.5,-1529.2,-1654.8,-1783.1,-1906.8,-2023,-2126.1,-2225,-2326.2,-2427,-2536.6,-2654.3,-2762.1,-2859.9,-2961.3,-3064.9,-3167.8,-3275.4,-3377.2,-3463.6,-3563.8,-3692.5,-3813.5,-3925.6,-4057.9,-4193.4,-4329,-4489,-4645.9,-4791.1,-4963.3,-5143.3,-5308.3,-5484.8,-5655.5,-5802,-5956.5,-6109.2,-6238.5,-6359.1,-6438.3,-6421.9,-6289.3,-6004.3,-5538.9,-4897.9,-4084.7,-3137.5,-2110.9,-1022.3,83.092,1140.7,2138,3048.7,3818.1,4444.7,4948.3,5321.8,5566.3,5708.3,5781.9,5795.2,5739.6,5650.2,5568.8,5484,5388.1,5298.7,5211.3,5116.9,5019.9,4909.5,4753.2,4538.3,4302,4068.5,3804.9,3525.5,3297.4,3111.5,2929,2777.9,2678.3,2614.6,2577.8,2554.3,2547.8,2569.9,2589,2589.4,2595.4,2596.1,2577.6,2548,2482.4,2376.7,2270.4,2153.3,1993.4,1807.1,1612.5,1413.2,1214.1,1002.5,780.76,575.5,379.1,173.06,-31.153,-228.13,-422.13,-610.19,-803.21,-1005.5,-1193.3,-1361.3,-1529.2,-1694.9,-1848.6,-1999.7,-2146,-2273.1,-2393.4,-2520.7,-2638,-2736.6,-2831.8,-2925.9,-3017.2,-3115.4,-3213.7,-3302.8,-3396.9,-3500.1,-3595.7,-3687,-3791.7,-3905.5,-4017.9,-4135.3,-4261.5,-4398.6,-4558.6,-4732.5,-4899.8,-5069.4,-5242.6,-5404.8,-5574.7,-5756.2,-5911,-6044.9,-6184.7,-6292.6,-6321.5,-6254.6,-6054.6,-5674.6,-5100.6,-4351.9,-3460,-2447.5,-1351.5,-240.4,845.42,1891.9,2840.4,3638.2,4307.9,4865.5,5280.8,5563.3,5755.1,5863,5897,5889.1,5853.3,5804.3,5755,5693.8,5641,5626.3,5607.1,5551,5489.5,5407.3,5254.2,5042,4802,4536.4,4254.8,3982.9,3736.1,3511.9,3313.8,3158.7,3039,2938.2,2871.6,2833.7,2794.2,2772.8,2789,2804.3,2800.1,2788.4,2759.1,2707.9,2638.1,2534,2399.1,2253.8,2090,1898.8,1697.3,1494.4,1283,1064.7,847.37,628.46,400.98,170.14,-49.376,-250.4,-440.31,-628.66,-813.18,-987.75,-1152.4,-1308.4,-1463,-1623.3,-1776.3,-1914.5,-2058.7,-2210.9,-2345,-2465.6,-2599.7,-2739.4,-2864.8,-2982.9,-3099.8,-3207.3,-3313.3,-3426.2,-3530,-3619.9,-3717.1,-3827.8,-3937.9,-4040.7,-4146.2,-4266.6,-4392.2,-4504.7,-4617.7,-4754.1,-4903.6,-5053.8,-5214,-5385.7,-5561.8,-5743.9,-5931.2,-6116.3,-6293,-6459.7,-6626.4,-6790.2,-6918.4,-6994.6,-7017.5,-6936.5,-6686.2,-6251.1,-5635.8,-4846.6,-3897.9,-2808.8,-1643.5,-485.53,645.98,1734.8,2711.4,3548.3,4262.4,4836.3,5265.2,5583.6,5810.2,5956.3,6039.5,6067,6056.6,6035.2,6011.9,5996.6,6004,6027,6046.4,6052.1,6039.1,5996.3,5900.2,5737.1,5521,5267.4,4989,4715.2,4464.8,4232.9,4018.3,3821,3646.4,3512.5,3418.5,3350,3309.3,3291.1,3282.5,3281.5,3271.3,3238.3,3192.7,3128.4,3037.3,2935.3,2818.8,2671.8,2503.4,2322.9,2133.3,1940.7,1738.2,1523.4,1309,1095.7,879.09,667.65,466.79,269.59,69.6,-130.27,-322.3,-503.97,-679.2,-848.45,-1004,-1148.4,-1298,-1449.4,-1586.6,-1719.3,-1852.6,-1968.3,-2067.9,-2169.7,-2280.9,-2401.9,-2520,-2620.1,-2714.6,-2819,-2923.4,-3019.3,-3118.5,-3229.3,-3340.8,-3449.7,-3565.2,-3680.8,-3788.7,-3903.2,-4031.9,-4167,-4306.1,-4449.8,-4600.3,-4757.7,-4916.8,-5082.1,-5262.4,-5449.1,-5627.6,-5792.5,-5951.3,-6116.7,-6282,-6424.5,-6544.3,-6644.9,-6677.7,-6581.3,-6343.6,-5940.9,-5332.2,-4554.3,-3650.3,-2608.4,-1491.5,-390.13,701.74,1748.2,2663.4,3461.9,4154.4,4693.7,5105.7,5425.2,5632.7,5749.9,5814.9,5838.1,5840.7,5828.5,5795.4,5764.5,5743.5,5720.9,5707.8,5699.5,5657.4,5558.8,5410.1,5219.5,4985.3,4717.7,4444.6,4180.8,3925.7,3691.7,3496.6,3344.1,3226.5,3139.2,3090.6,3079.6,3076.5,3064.5,3061.9,3068.5,3055.8,3021.4,2977.7,2912.7,2819,2702,2560.7,2402.7,2230.5,2033.1,1825.8,1622,1407.5,1193.6,990.13,779.24,579.17,400.7,204.8,-0.95937,-181.92,-355.65,-529.99,-692.96,-859,-1025.1,-1176.4,-1324.7,-1468.7,-1600.1,-1736,-1880.5,-2019,-2148,-2270.7,-2395.4,-2525.3,-2649.2,-2767,-2883.5,-2990.6,-3093.7,-3204.6,-3318.8,-3432.9,-3547.5,-3662,-3783.5,-3903.7,-4015,-4144.5,-4289.2,-4411.2,-4533.1,-4691.2,-4856.9,-5012.9,-5178.3,-5351.6,-5529.4,-5713.7,-5890.1,-6058.9,-6229,-6391.6,-6542,-6673.5,-6758.2,-6765.9,-6666.5,-6418.1,-5987.5,-5372.9,-4591.4,-3657.7,-2605.3,-1499.7,-387.5,705.98,1726.3,2625.3,3404.2,4064.4,4591.9,4998.8,5308.5,5527.4,5669.7,5762.3,5812.6,5821.4,5816.8,5822,5829.3,5839.2,5861.9,5883.4,5885.5,5860.4,5789.4,5651.7,5453,5214.4,4946.8,4656.9,4363.6,4082.9,3823.9,3609,3444.8,3307.8,3193.6,3114.9,3062.9,3032.7,3026.8,3024.8,3016.7,3011.3,2991,2936.9,2863,2775.2,2663.9,2529.1,2371.1,2197.3,2019.1,1827.9,1626.3,1431.9,1233.8,1027.5,834.9,650.72,466.48,290.66,110.19,-68.259,-219.62,-371.74,-540.15,-689.46,-823.79,-966.14,-1108.7,-1252.4,-1392.3,-1515.1,-1634.6,-1752.1,-1861.3,-1973.4,-2078.2,-2180.5,-2304,-2411.6,-2485.1,-2577.3,-2688.5,-2785.9,-2879.1,-2966,-3053.1,-3169.6,-3289.5,-3390.2,-3504.1,-3627.6,-3739.5,-3863.3,-4007.7,-4150.6,-4290.9,-4439.7,-4599.7,-4775.2,-4964.8,-5147.4,-5310.6,-5474.8,-5645.6,-5801.7,-5947.8,-6087.5,-6195.9,-6265.5,-6273.5,-6155.4,-5878.2,-5433.3,-4808.4,-4030.1,-3122.4,-2091.1,-1001.9,71.566,1107.2,2065.8,2910,3639.4,4232.2,4685.6,5041.8,5296.9,5437.6,5509.7,5545.7,5546.9,5525.7,5491.8,5455,5423,5393.9,5378.9,5361.8,5294.5,5185.1,5053.2,4863.2,4610.4,4331.1,4036.6,3746.7,3491.8,3274.7,3093.8,2948.9,2836.7,2763,2720.5,2697.8,2699.2,2714.1,2729.4,2750.8,2765.2,2754.4,2725.7,2675.7,2590.1,2475.7,2343.7,2197.9,2036.6,1850.5,1643.9,1435.5,1227.8,1010.9,788.06,578.11,388.49,191.99,-20.125,-210.92,-383.08,-569.66,-747.94,-904.26,-1066.7,-1220.9,-1359,-1516.3,-1671.9,-1793.3,-1912.2,-2036.1,-2144.1,-2254.6,-2378.1,-2498.7,-2614.6,-2728,-2843.9,-2966,-3075.6,-3168,-3268.4,-3379.3,-3485.6,-3595.2,-3709.3,-3812.2,-3919.5,-4045.9,-4158.8,-4259.8,-4396.3,-4544.3,-4662.6,-4801.8,-4987.1,-5160.5,-5312.9,-5479.8,-5649.8,-5808.2,-5968.2,-6128.5,-6281.4,-6425.6,-6551.2,-6651.1,-6717,-6709.5,-6573.1,-6269.2,-5786.1,-5126.7,-4289.6,-3295,-2209.9,-1085.8,57.84,1161.8,2165.9,3067.4,3848,4478.9,4986.5,5385.6,5665.6,5861.9,6006,6093.9,6140.6,6163.8,6174.4,6193.8,6217.6,6241.5,6291.4,6348.2,6370.2,6363.5,6314.3,6186.4,6001.2,5779.1,5506.9,5218.9,4961.4,4722.4,4496.4,4312.6,4172.8,4059.6,3979.5,3935.2,3912.2,3907.6,3916.8,3925.6,3945.4,3976.4,3971.6,3923,3867.9,3796.6,3694.8,3589.7,3472.1,3314.7,3137.3,2955.4,2759.4,2554.8,2356.2,2172.5,1995.4,1805.5,1614.1,1438.9,1263.8,1086.8,923.75,763.82,597.77,439.56,291.19,140.4,-11.024,-146.87,-270.14,-402.15,-532.92,-642.3,-750.04,-865.62,-970.87,-1079.6,-1204.4,-1316.6,-1407.8,-1500.9,-1598,-1690.7,-1787.1,-1893.5,-1997.6,-2094.7,-2208.4,-2340,-2456.1,-2566.8,-2705.3,-2849.9,-2986.4,-3139.8,-3299.8,-3456.2,-3629.3,-3802.3,-3965.2,-4152.2,-4344.4,-4503.8,-4655.8,-4814.5,-4969.2,-5127.2,-5260.7,-5327.3,-5315.1,-5179.2,-4870.8,-4401.2,-3776.5,-2997.1,-2108.2,-1147,-141.7,847.66,1785.2,2662.8,3442.8,4099.4,4642.9,5066.5,5374.2,5608.1,5777.9,5869.2,5909,5923,5907.4,5878.2,5855,5836.4,5828.4,5829.7,5821,5794.4,5738.1,5626.5,5457.7,5248.7,5011.6,4766.5,4540.3,4334,4135.3,3955.6,3805.1,3676.2,3583.7,3527.6,3470.7,3428.6,3427.5,3420.2,3400.3,3410.3,3410.4,3364,3311.7,3255.1,3170.8,3077,2968.1,2826.4,2673,2516.8,2347,2170.5,1989.1,1801.9,1621.5,1437.3,1234.3,1044.7,885.46,715.58,528.87,361.9,201.88,24.532,-142.74,-287.35,-434.28,-585.05,-726.11,-860.28,-988.74,-1112.4,-1239.8,-1363.4,-1475.1,-1595.9,-1729.7,-1852.3,-1974,-2110.7,-2231.9,-2333,-2447.8,-2573.9,-2697.5,-2826.6,-2957.4,-3089.2,-3229.4,-3364.7,-3491.4,-3629.4,-3782.3,-3932.9,-4074.7,-4226.9,-4397.4,-4558.6,-4705.2,-4865.6,-5037.6,-5210.3,-5393.7,-5577.7,-5759.5,-5960.2,-6156.8,-6317,-6469.2,-6635.5,-6786.5,-6897.8,-6959.1,-6942.1,-6807.3,-6532.2,-6123.8,-5594.3,-4944.4,-4190.1,-3366.5,-2503.8,-1635.1,-797.05,-11.856,703.21,1327.8,1850.7,2278.6,2622.3,2875.6,3048.6,3187.3,3303.1,3379.2,3440.5,3508.8,3574.5,3639.7,3696.6,3739.3,3786.7,3817.9,3803.7,3763.8,3696.9,3584.9,3443.3,3277.5,3089.8,2902.7,2720.8,2552.5,2419.2,2318.2,2237.8,2176.2,2137.6,2126.3,2129.5,2139.8,2153.5,2147,2126,2114.3,2095.1,2060.4,2015,1938.9,1846.1,1760.2,1655.9,1529.2,1399.3,1259.6,1118.2,984.89,845.12,704.19,567.61,421.67,280.88,160.59,33.041,-113.05,-245.81,-361.79,-489.59,-620.01,-734.35,-852.68,-976.74,-1084.9,-1187.5,-1294,-1391.5,-1479.9,-1563,-1645.4,-1731.3,-1807.7,-1879.2,-1962.4,-2043.9,-2118.1,-2195.6,-2267.9,-2339.7,-2425.9,-2516.4,-2604.4,-2691.7,-2776.6,-2867.1,-2962.5,-3057.7,-3161.6,-3274.9,-3395.3,-3525,-3651.3,-3773.4,-3905.7,-4045.2,-4194.8,-4354.2,-4495.5,-4617.7,-4749.2,-4889.7,-5018.2,-5126.3,-5213.7,-5251.1,-5179.9,-4994.5,-4732.1,-4373.4,-3889.3,-3308,-2653.8,-1946.1,-1222.2,-494.01,215.81,850.47,1402.9,1898,2315.5,2643.4,2908.9,3110.3,3236.2,3321.2,3389.8,3435.8,3475,3514.1,3536.6,3564,3608.7,3635.3,3642.8,3640.6,3597.1,3514.5,3413.8,3276.4,3114.1,2964.6,2819.4,2668.7,2529.6,2409.9,2314.8,2245.7,2193.5,2162.2,2156.7,2163.4,2171.6,2183.4,2203.4,2225.2,2231.3,2216.7,2192.5,2162.8,2120.4,2052.5,1961.2,1867.1,1767.1,1643.7,1515.4,1392.8,1251.9,1104.4,971.31,825.49,669.36,537.24,406.02,258.61,127.96,6.7759,-128.3,-258.44,-379.11,-495.82,-601.06,-715.35,-842.62,-947.87,-1039.1,-1139.6,-1232.4,-1319.1,-1415.4,-1510,-1602.8,-1699.8,-1787.5,-1869,-1957.3,-2044,-2125,-2211.5,-2308.6,-2405.8,-2497.9,-2603.2,-2719.6,-2816.8,-2907.7,-3019.2,-3128.7,-3232.8,-3355.8,-3478.2,-3585.4,-3699.5,-3822.5,-3939.8,-4044.3,-4146.7,-4275.3,-4419.3,-4544.6,-4667.7,-4803.1,-4936.1,-5076.2,-5222.5,-5355.8,-5484.6,-5604.7,-5710.1,-5825.1,-5931.2,-5984.8,-5980.2,-5887.1,-5664.4,-5333.1,-4911.3,-4379.3,-3743.5,-3039.9,-2303.6,-1556.1,-799.26,-54.647,622.06,1204.6,1712.4,2152.5,2515.9,2812.2,3045.3,3210,3334.7,3442.5,3523.6,3598.2,3683,3750.4,3809.7,3880.7,3934.9,3979.5,4032.6,4047.9,4012,3955.2,3864.4,3734.5,3590.1,3441.7,3303.8,3180.4,3065,2977.5,2915.3,2855.1,2816.9,2813.4,2821.1,2832.6,2850.6,2876.1,2903.9,2913.9,2911.8,2908.2,2875.2,2817.4,2765.2,2694.6,2593.8,2493.3,2382.7,2246.4,2112.3,1981.6,1832.2,1681.5,1546.5,1406.3,1251.4,1101.4,967.83,843.36,713.43,567.69,419.53,289.14,164.34,31.081,-91.393,-197.33,-310.46,-432.81,-546.38,-651.98,-758.89,-861.63,-955.46,-1054,-1163.9,-1266.2,-1354.3,-1450.3,-1560,-1665.4,-1763.3,-1861.2,-1959.9,-2062.1,-2168.6,-2272.1,-2381.2,-2507,-2623.2,-2713.7,-2816.7,-2944.2,-3061.6,-3171.3,-3295.1,-3422.3,-3546.4,-3669,-3782,-3892.4,-4014.4,-4148.1,-4283.8,-4410.1,-4540.6,-4690.5,-4833.9,-4967.4,-5118.4,-5266.4,-5393,-5531.3,-5684.7,-5823.8,-5939.7,-6018.2,-6035.7,-5971.7,-5794.9,-5494.9,-5092.2,-4590.7,-3989.2,-3307.8,-2562.5,-1776.5,-995.08,-243.54,468.76,1116.6,1686.6,2177.6,2576.9,2894.6,3151.8,3339.6,3464.4,3560.8,3638.6,3695.7,3742.2,3788.3,3848.4,3921.3,3982.2,4022,4044.5,4046.5,4022.3,3949.5,3823.1,3690.6,3572.1,3433,3275.9,3141.7,3037.4,2945.7,2863,2803.8,2779.5,2769.5,2755.9,2762.6,2792.2,2808.2,2816.5,2834.1,2830,2799.9,2767.4,2715.2,2641,2556.9,2437.4,2301.7,2190,2056.2,1883.7,1732.2,1587.6,1416,1256.6,1105.8,926.92,753.82,608.47,457.11,295.54,143,-0.71134,-139.5,-278.01,-418.29,-551.53,-675.18,-789.64,-892.96,-999.03,-1116,-1229.3,-1336,-1438,-1526.4,-1617.8,-1727.1,-1830.3,-1924.3,-2027.3,-2126.2,-2218.1,-2316.5,-2408.3,-2498.6,-2608.7,-2723.4,-2836.9,-2958,-3064.9,-3162.4,-3287.4,-3429.8,-3564.5,-3700.8,-3846,-3995.4,-4141.4,-4277.8,-4417.8,-4566.5,-4704.4,-4834.1,-4969.7,-5092.6,-5189.3,-5270,-5317.4,-5294.3,-5184.8,-4969.3,-4622.2,-4159.3,-3606.8,-2952.7,-2209.4,-1439.8,-671.34,101.81,843.94,1514.3,2115.9,2649.7,3100.1,3461.8,3733.3,3928,4078.4,4189.3,4253.1,4296.7,4341.2,4379.6,4415.9,4448,4454.6,4436.2,4396.6,4313.5,4188.6,4043.7,3866.5,3654.5,3449.8,3266.1,3090.7,2944.1,2831.9,2727,2642.9,2600.2,2571.9,2552.1,2563.6,2596.2,2630.7,2659.2,2673.3,2682.7,2682,2642.1,2576.2,2503.5,2403.3,2285.7,2169.1,2020.9,1844.6,1684.2,1515.4,1309.2,1108,926.07,729.77,530.65,356.62,188.1,4.7881,-177.53,-342.97,-500.7,-667.09,-837.68,-996.65,-1148.4,-1302.8,-1449.9,-1583.4,-1711.3,-1835.9,-1960.8,-2092.4,-2218.2,-2328.8,-2444.4,-2568.8,-2676.1,-2775.3,-2894.1,-3010.7,-3107.6,-3216,-3339.9,-3454,-3569.1,-3695.2,-3814.7,-3930.8,-4055.2,-4182.5,-4318,-4466.2,-4614.6,-4769,-4936.5,-5097.5,-5254.9,-5429.7,-5599,-5748.3,-5910.5,-6080.5,-6221.8,-6336.9,-6418.9,-6427.6,-6337.8,-6119.8,-5752.7,-5257.5,-4630.3,-3862.3,-3012.5,-2109.6,-1137.2,-159.93,753.73,1616.8,2406.5,3074.2,3638.7,4112,4476.5,4756.9,4975.3,5129.1,5245.3,5344.8,5415.3,5472.2,5549.6,5638.2,5707.6,5754,5777.8,5767.3,5723.7,5645.3,5514.5,5343,5156.8,4951.1,4733.1,4531.2,4345.7,4173.6,4030.1,3914.1,3819.3,3751.7,3715.6,3707.6,3709.9,3707.6,3703.2,3687.4,3651.3,3606.9,3547.8,3458.3,3346.8,3214,3058.2,2894.6,2716.7,2513.6,2311,2115.7,1903.7,1682.6,1466,1241.5,1021.1,824.04,625.88,415.91,219.54,34.032,-155.54,-341.67,-521.42,-688.02,-836.49,-993.03,-1161.1,-1311.2,-1450.2,-1592.5,-1720.9,-1838.6,-1963.4,-2087.6,-2208,-2333.9,-2461.1,-2583,-2705.5,-2831.4,-2953.9,-3073.1,-3195.4,-3313.6,-3422.8,-3541.5,-3679.2,-3818,-3945.7,-4071.7,-4204.8,-4333.9,-4454.2,-4588,-4741.2,-4893,-5049.7,-5227,-5404.7,-5567.1,-5729.2,-5900.7,-6067.6,-6218.4,-6366.6,-6519.4,-6646.2,-6716.6,-6712.9,-6603.1,-6361.7,-5973.9,-5420.6,-4712.7,-3879.3,-2936.6,-1926.8,-908.37,90.898,1048.1,1933.4,2721.2,3390,3947.8,4403.8,4739.2,4971.8,5147.7,5273.9,5352.8,5405.1,5439.7,5471.2,5516.8,5569.3,5614.9,5643.2,5650.3,5635.6,5580.3,5471.8,5322.1,5139.2,4928.1,4698.2,4460.2,4239.8,4052.4,3885.9,3741.5,3625.4,3534.7,3481.5,3462.1,3453.2,3458.9,3478.5,3489.5,3486.1,3461.2,3407.9,3343.8,3267.2,3161,3027.8,2866.3,2684.1,2501.5,2304,2082.4,1866,1661.2,1454.6,1242,1019.7,806.66,615.75,418.93,215.74,29.465,-153.4,-337.65,-513.23,-694.39,-874,-1033.1,-1190.7,-1351.9,-1494.5,-1623.9,-1759.8,-1901,-2033.3,-2152.4,-2273,-2393.4,-2498.4,-2604.5,-2720.7,-2826.4,-2931.9,-3045.9,-3140.2,-3227.4,-3343.1,-3468.8,-3586,-3707.6,-3833.6,-3973.3,-4138.1,-4299.4,-4451.2,-4627.1,-4813.9,-4983.7,-5161,-5349.8,-5520.8,-5684.9,-5851.2,-5994.1,-6117.9,-6230.4,-6292,-6260.8,-6103.3,-5785.8,-5311.5,-4694.2,-3929.3,-3041.5,-2075.7,-1058.7,-30.596,953.47,1863.9,2684.1,3398.5,4003.1,4492.5,4866.7,5144.1,5336,5458.7,5549.1,5613.1,5640.5,5668.3,5709.5,5724.6,5729.9,5761.3,5780.2,5751.4,5683.4,5571.8,5413.5,5208,4958,4710.1,4485.5,4246.6,4009.9,3822.5,3665.6,3526.3,3424,3348.1,3301.3,3299.7,3301.9,3277.7,3261.6,3258,3231.7,3184.4,3127.3,3046.9,2942.2,2818.1,2664.4,2484.6,2300.6,2117.9,1922.5,1705.5,1475.4,1245.9,1027.2,822.68,620.79,414.3,215.14,19.621,-188.79,-392.31,-567.72,-733.83,-912.27,-1091.1,-1256,-1411.6,-1562.3,-1701,-1830.7,-1965.4,-2102,-2227.8,-2349.8,-2472.2,-2583.4,-2694.3,-2819.1,-2931.7,-3028.1,-3147.7,-3283,-3402,-3519.9,-3634.6,-3727.9,-3840.8,-3987.2,-4114.8,-4222.9,-4344.3,-4471.6,-4604.1,-4747.2,-4882.6,-5015.5,-5167,-5331.8,-5498.4,-5665,-5834.1,-6011.7,-6194,-6373,-6548.5,-6717.8,-6872.9,-7004,-7097.8,-7139.2,-7093.7,-6904.6,-6542,-6015.3,-5325,-4471.3,-3489,-2420.3,-1305,-199.3,854.34,1833.3,2705.7,3452.8,4076.8,4576.5,4962.3,5243.6,5421.8,5539.4,5633.6,5681.5,5696.1,5733,5780.5,5813,5856.4,5903.2,5919.4,5921.8,5917.6,5859.5,5726.3,5543.1,5322.5,5067.2,4798.5,4532.4,4272.3,4041.9,3861.9,3708.2,3571.6,3485.5,3439.5,3395.7,3373,3380.2,3375.8,3360.9,3352.7,3317.7,3250.4,3179.9,3085.7,2949.3,2797.5,2628.9,2430.7,2227.8,2029.9,1822.7,1605.7,1377.3,1147.9,941.85,743.64,534.88,330.98,130.03,-59.84,-218.24,-381.8,-561.03,-712.91,-863.56,-1034.8,-1180.3,-1315.3,-1465.4,-1588.7,-1696.2,-1820,-1935.7,-2045.5,-2156.2,-2248.9,-2348.6,-2463.4,-2561.6,-2660.7,-2771.1,-2867.9,-2970.1,-3088.5,-3188,-3268,-3348.9,-3423,-3485,-3540.2,-3584.8,-3616.8,-3645.3,-3673,-3684.1,-3677.3,-3683.1,-3710.5,-3737.4,-3764.3,-3803.5,-3845.6,-3899,-3985,-4083,-4173.9,-4280.9,-4400.5,-4509.7,-4633.3,-4779.8,-4896.1,-4939.3,-4880.9,-4681.7,-4326.8,-3820.6,-3168,-2386.5,-1507,-573.94,373.21,1308.2,2184.1,2963,3645.6,4218.6,4668.6,5011.3,5256.3,5426.1,5545.4,5600.1,5607.4,5611.3,5601.9,5580.7,5577.8,5580.8,5580.2,5586.2,5575.5,5528.5,5441,5296.4,5090.7,4840.2,4566.8,4287,3998.1,3713.9,3468.6,3262.3,3088.6,2958.6,2858,2776,2728.5,2705.4,2691.3,2697.2,2700.3,2665.1,2622.6,2599.3,2551.4,2462.8,2368.9,2265.7,2131.4,1974.8,1799.4,1610.5,1425,1237.9,1045.2,848.63,634.78,422.03,243.28,75.186,-104.97,-280.2,-451.28,-623.23,-788.12,-957.85,-1131.9,-1289.9,-1442.3,-1604.1,-1764.8,-1922.7,-2075.4,-2208.5,-2326.7,-2446.6,-2570.5,-2688.5,-2790.5,-2885.9,-2993.3,-3100.3,-3187.5,-3268.8,-3359.4,-3446.9,-3522.9,-3604.2,-3697.8,-3784.5,-3864.3,-3954,-4042.5,-4128.9,-4238.9,-4359.5,-4459.3,-4549,-4648.8,-4760.4,-4884,-5017.4,-5157.3,-5301.6,-5453.5,-5627.2,-5813.7,-5985.5,-6148.5,-6318.1,-6478.7,-6617.7,-6741.8,-6848.5,-6903.8,-6857.1,-6676.8,-6339.5,-5815.9,-5107.9,-4246.6,-3259.8,-2182.2,-1058.9,63.506,1141.6,2148.9,3049.5,3804.2,4424.4,4927.5,5300.6,5569.4,5772.8,5907.8,5986.3,6041.4,6080.5,6100.1,6108,6129.7,6182.7,6239.3,6273.4,6286,6257.6,6170.6,6035,5857.5,5650.1,5423.5,5167.3,4891.2,4622.6,4374.1,4159.2,3984.6,3846.5,3748.4,3678.9,3623.3,3588.8,3566.7,3542.5,3524.2,3508.5,3483,3443.7,3377.6,3279.3,3156.5,3010.2,2848.8,2678.1,2491.4,2298.8,2101.4,1879.6,1654.2,1451.8,1246.3,1025.2,815.79,619.7,425.69,239.51,57.568,-120.12,-276.62,-423.54,-584.86,-739.48,-869.8,-1006.7,-1156.8,-1288.7,-1408.6,-1534,-1645.9,-1745.6,-1859.7,-1975.6,-2074,-2173.6,-2284.9,-2393.2,-2490.9,-2582.7,-2681.2,-2790.7,-2894,-2992.2,-3106.7,-3224.9,-3330.1,-3439.5,-3553,-3661.4,-3787.1,-3924.9,-4045.6,-4169.8,-4317.4,-4463.3,-4599.9,-4742,-4895.8,-5063.4,-5230.1,-5382.8,-5534.5,-5685.4,-5823.9,-5960.4,-6098.6,-6221,-6306.5,-6331.4,-6270.7,-6085.4,-5730.5,-5195.5,-4488.6,-3626,-2654.5,-1611.9,-528.18,531.4,1529.2,2465,3294.2,3979.3,4539.5,4971.8,5267.6,5468.3,5599.9,5660.2,5678.1,5677.4,5646.2,5598.2,5566.9,5543.9,5514.5,5491.4,5462.7,5392,5270.3,5107.4,4907.3,4669.1,4394.6,4111.1,3856.2,3632.9,3431.5,3261,3127.4,3028,2959.5,2918.1,2905.3,2912.5,2921.5,2937.2,2962,2971.8,2957.3,2923,2858.6,2764.2,2648,2502.4,2334.2,2160.1,1968.9,1756.3,1544.9,1334,1105,872.27,660.21,459.21,254.88,58.655,-125.92,-316.07,-508.47,-684.74,-850.8,-1019.1,-1186.3,-1345.8,-1493.6,-1637.5,-1785.8,-1920.1,-2037,-2166.2,-2301.4,-2417.6,-2529.8,-2649.6,-2765.1,-2873.5,-2975.3,-3074.9,-3182.2,-3291.5,-3396.3,-3497.9,-3597.1,-3699.9,-3804.5,-3907.8,-4021.9,-4139.8,-4250.9,-4378.8,-4524.5,-4661.5,-4798,-4951.1,-5117.4,-5295.1,-5478.2,-5655.9,-5821.6,-5973.2,-6128.2,-6294.6,-6443.6,-6558.8,-6638.9,-6649.4,-6542.1,-6286.5,-5861.2,-5256.4,-4476.5,-3547.5,-2517.6,-1423.9,-294.74,806.3,1815.9,2725.4,3525.4,4181.5,4706.2,5126.4,5424.9,5617.1,5746.7,5810.8,5830,5848.3,5844.5,5815.5,5810.2,5825.3,5842.8,5865.1,5864.7,5828.2,5752.6,5607.7,5413.4,5208.2,4969,4695.2,4429.2,4182.1,3953.5,3749.8,3579.7,3452.8,3354.9,3283.4,3252.5,3231,3206.6,3213.5,3224.6,3207.1,3190.1,3154,3063.2,2962.4,2869.2,2738.3,2572.4,2401.9,2221.4,2024,1819.4,1608.9,1390,1167.4,944.83,726.27,526.51,343.96,147.52,-61.23,-244.13,-412.13,-597.28,-776.26,-932.46,-1086.8,-1235.6,-1376,-1522.1,-1659.1,-1785.3,-1918.1,-2038.2,-2143.3,-2257.8,-2368.9,-2474,-2582.7,-2672.7,-2763.2,-2876.1,-2965.3,-3041.1,-3151.6,-3255.8,-3337.7,-3440.6,-3546.4,-3642,-3760.5,-3889.1,-4007.5,-4126.3,-4245.2,-4368.2,-4502.4,-4643.2,-4799.4,-4966.2,-5129.2,-5301.9,-5480.1,-5642.5,-5803.6,-5968.8,-6118.4,-6260.1,-6406,-6535.6,-6610.6,-6601.1,-6490.7,-6240.9,-5805.2,-5190,-4415.4,-3488.2,-2455.4,-1373,-271.22,807.33,1819.6,2728.7,3495.5,4124.3,4636.1,5025.7,5302.2,5476.8,5560.3,5604.7,5628.9,5605.8,5562.7,5534.5,5505.2,5474.3,5453.6,5429.7,5383.5,5294.6,5157.5,4984.5,4771.8,4515.2,4235.6,3964.4,3722.6,3503.3,3307.9,3161.8,3053.9,2963.9,2910.6,2891.6,2894,2922.7,2945.8,2947,2961.5,2969.9,2931.8,2867.5,2786.5,2678.2,2553.6,2408.4,2234.9,2044.7,1840,1629.3,1418.8,1194.1,970.87,769.48,562.87,351.33,168.25,-8.027,-207.87,-401.84,-568.54,-733.37,-908.19,-1073.4,-1222.3,-1370.4,-1524.7,-1677.4,-1822.8,-1961.2,-2094,-2222.8,-2347.5,-2462.2,-2564.5,-2664.6,-2767.2,-2864.7,-2961.1,-3060.7,-3151.4,-3241.7,-3348.4,-3453,-3545.4,-3648.5,-3767.4,-3893,-4023.6,-4151.7,-4281.2,-4428.6,-4590.3,-4752.7,-4915.7,-5093.4,-5286.4,-5464.3,-5621.2,-5791.7,-5964.8,-6107.3,-6233.7,-6331.2,-6345,-6254.8,-6031.1,-5619.9,-5018.2,-4250.1,-3335.3,-2318.6,-1242.1,-137.14,943.04,1951.4,2860.7,3642.1,4290.1,4821.1,5231.1,5513,5697.8,5821.4,5885,5898.3,5895.2,5877.2,5839.9,5816.1,5810.9,5798.2,5778.9,5751.1,5696.6,5602,5444.2,5226,4984,4724.3,4446.1,4173.6,3921,3695.9,3504.3,3342.1,3214.4,3124.8,3072.1,3049.9,3029.5,3012.9,3025.5,3035.4,3020.5,3000.4,2951.5,2861.5,2760.4,2639.4,2491.1,2325.8,2132.4,1935.4,1755.1,1552.3,1328.2,1109.3,883.34,663.61,461.17,244.89,22.569,-176.35,-359.05,-536.64,-717.27,-904.22,-1082.7,-1249.2,-1408.9,-1561.9,-1712,-1851.4,-1978,-2111.3,-2246.3,-2365.1,-2472.4,-2575.3,-2685.6,-2803.2,-2893.9,-2973.7,-3095.2,-3216.1,-3288.9,-3375.2,-3501.8,-3618.4,-3724.5,-3840.3,-3954.5,-4070.3,-4185.3,-4292,-4414.9,-4550.1,-4670.5,-4802.8,-4963.8,-5120.7,-5273.1,-5438.8,-5604.9,-5772.8,-5951.9,-6120.6,-6272.7,-6427.5,-6578.2,-6715.1,-6845.4,-6936.5,-6934.5,-6818,-6549.2,-6081.6,-5430.4,-4618.4,-3647.6,-2570.9,-1452.7,-315.04,800.41,1834.7,2755.5,3539,4185.8,4719.7,5132.4,5416.5,5602.7,5712.3,5764,5791,5794.6,5771.2,5751.9,5747.1,5746.3,5755.2,5751.4,5707.6,5640.1,5537.3,5368.2,5157.1,4916.5,4634.3,4346,4074.7,3819.9,3612.5,3439,3268.6,3149.4,3092.8,3046.3,3024.1,3045.3,3068.7,3076.9,3074.1,3063.8,3053.4,3011,2920.8,2820.8,2698.6,2529.1,2354.2,2173.2,1950,1720.8,1503.9,1264.7,1021.9,803.62,588.7,375.47,170.45,-42.532,-252.65,-440.18,-617.7,-796.72,-976.01,-1152.5,-1316.9,-1471.5,-1627.3,-1778.7,-1919.9,-2059.7,-2200.7,-2334.4,-2459.1,-2582.7,-2704.8,-2816.7,-2921,-3023.5,-3121.4,-3223,-3335.7,-3447.9,-3559.8,-3679.4,-3792.4,-3895.5,-4017.2,-4163,-4306.1,-4448.7,-4615.7,-4795.8,-4964.8,-5135.6,-5326.7,-5520.8,-5692.4,-5847.9,-6009.6,-6170.5,-6309.9,-6431.4,-6516.5,-6499.1,-6337.6,-6022.7,-5530.9,-4852.9,-4013.8,-3045.9,-1980,-850.49,282.11,1344.7,2315,3187,3916.9,4499.5,4976,5339.6,5579.3,5741.6,5849.5,5886.5,5883.5,5891.5,5895.2,5870.5,5861.8,5894.6,5921.2,5923.7,5922.7,5886,5779.1,5621,5414.7,5152.7,4869.9,4590.8
-1043.1,-1094.4,-1146.7,-1205.6,-1270.3,-1327.7,-1388.2,-1463.5,-1537.4,-1608.4,-1691.3,-1781.3,-1869.9,-1958.4,-2051.6,-2152.9,-2254.6,-2353.4,-2459.3,-2564.1,-2653,-2734.5,-2806.3,-2836.8,-2803.5,-2694.3,-2496.7,-2220.4,-1887.4,-1501.1,-1067.1,-620.9,-193.3,219.57,613.55,958.87,1253.7,1509,1698.5,1817,1902.4,1954.8,1956.2,1933.7,1906.1,1863,1814.9,1773.8,1726.5,1672.9,1635.7,1609.5,1560,1489.7,1431.6,1380.8,1325,1283.7,1257.2,1233.4,1228.6,1244.4,1260.7,1279.7,1308.4,1341.9,1379.7,1414.4,1437.9,1456.5,1470.6,1473.8,1468.6,1447.4,1405.9,1365.1,1320.7,1239.3,1139.3,1056.6,966.99,859.96,767.18,673.78,558,449.18,351.88,249.35,159.16,80.706,-7.2016,-90.024,-155.79,-221.04,-289.16,-353.16,-416.81,-481.88,-542.9,-599.5,-656.36,-710.19,-757.51,-806.48,-858.16,-908.47,-964.61,-1022.5,-1072.6,-1127,-1188.3,-1242.6,-1296.3,-1357.7,-1425.6,-1505.3,-1587.2,-1656.7,-1726.7,-1805.7,-1884.8,-1969.6,-2068.2,-2173,-2270.1,-2358.7,-2465.9,-2598.2,-2709.9,-2794.4,-2884.5,-2946.3,-2933.5,-2861.4,-2728.3,-2510.9,-2212.6,-1834,-1395.5,-945,-490.48,-34.409,393.36,790.46,1148.2,1433.8,1662.8,1854.2,1978.3,2037.4,2068.2,2074.3,2049.8,2006.7,1949.8,1885,1829.1,1781.7,1730.8,1681.3,1636.4,1581.9,1514.3,1444.6,1384.6,1340.6,1299.6,1258.1,1244.9,1258.5,1271.4,1294.5,1334.4,1367.1,1398.3,1439.5,1476.1,1507.8,1539,1558.4,1559.3,1535.8,1491.9,1452,1416.7,1361.4,1283.6,1196.1,1101.7,1001.9,902.5,807.57,709.43,600.39,494.34,400.51,302.2,199.8,112.67,33.787,-45.331,-112.99,-177.97,-251.99,-317.31,-370.56,-429.19,-492.41,-551.82,-603.71,-648.46,-698.25,-754.88,-808.97,-866.54,-927.78,-981.93,-1033.6,-1085.2,-1136.8,-1198.1,-1258.6,-1307.6,-1364.1,-1431.4,-1499.3,-1579.2,-1666.7,-1745.7,-1828.5,-1919.4,-2003.9,-2089.8,-2187.1,-2287.9,-2389.6,-2492.8,-2597.8,-2709.8,-2820.7,-2915.8,-2995.4,-3056.1,-3074.6,-3024.2,-2891.6,-2672.5,-2363.8,-1978.2,-1549.2,-1093.9,-609.69,-111,368.53,798.75,1172.9,1501,1773,1973.2,2113.4,2204.2,2253.6,2275.3,2258.3,2206.1,2151.2,2088.5,2009.5,1939.4,1876,1809.8,1759.7,1725.7,1692.5,1643.8,1572.5,1513.9,1481.7,1447.9,1424.9,1427.1,1438.9,1470.3,1507,1522.8,1556,1613.7,1653.3,1687.7,1726.8,1743,1747.1,1749.5,1729.9,1685.3,1627.5,1569.2,1505.7,1417,1319.4,1229.1,1123.9,1008.1,899.57,785.87,672.69,568.03,452.28,336.4,246.3,165.04,72.401,-16.948,-88.601,-157.79,-238.01,-311.88,-370.9,-429.31,-486.48,-543.41,-607.1,-659.13,-700.25,-759.57,-828.16,-887.81,-946.91,-997.32,-1041.2,-1106.7,-1178,-1233.7,-1300.3,-1374.6,-1431.1,-1496.6,-1578.5,-1644.8,-1713.7,-1803.3,-1884.7,-1964,-2059.2,-2151.9,-2249.4,-2359.9,-2455.7,-2550.1,-2668.9,-2783.3,-2884.2,-2993.9,-3093.7,-3156.4,-3182,-3159.4,-3057.3,-2851.9,-2549.4,-2177.8,-1753.8,-1285.5,-796.11,-312.07,154.2,597.08,998.4,1331.9,1599.8,1822.8,1992.6,2095.5,2150,2168.4,2142.9,2085.9,2023,1959.7,1891.2,1825.1,1764.3,1692.8,1611.6,1545.9,1493,1432.5,1369.3,1308.1,1252.7,1222.3,1209,1199.4,1216.2,1254,1283,1314.2,1357.9,1401.8,1446.9,1490.3,1527.1,1557.3,1567.9,1563.5,1553,1522.2,1484.9,1446.9,1375.9,1293.9,1225.7,1128.7,1012.3,919.82,822.91,704.96,592.61,485.76,382.23,285.39,188.44,100.88,22.13,-62.567,-139.72,-201.42,-262.9,-324.44,-385.36,-452.43,-518.32,-578.38,-636.56,-688.4,-733.25,-778.46,-822.44,-863.83,-910.59,-959.47,-1003.6,-1055.6,-1112.7,-1153.9,-1202.8,-1285.5,-1360.8,-1407,-1466.3,-1546.7,-1628.8,-1723.4,-1821.9,-1905.6,-2001.1,-2121.8,-2240.7,-2354.8,-2470.8,-2572.6,-2653.2,-2708.5,-2717.4,-2658.2,-2513.3,-2279.4,-1970.9,-1595.8,-1171.5,-727.85,-271.26,186.06,605.84,980.09,1323.3,1619.6,1847.8,2018.9,2147.9,2216.9,2219.6,2197.9,2166.7,2100.7,2013.8,1926.9,1833.3,1745.3,1665.4,1581.7,1502.5,1409.6,1297,1215.6,1160.1,1089.4,1027.6,992.26,977.89,995.03,1019.3,1038.8,1084.3,1138,1180.1,1232.1,1277.3,1305.2,1342.1,1365.4,1352.2,1335.8,1319.9,1272.2,1199.6,1134.6,1067.4,959,831.55,731.76,627.75,494.59,375.82,269.84,153.43,52.302,-43.983,-158.86,-260.18,-348.44,-446.2,-528.56,-599.99,-685.24,-763.01,-836.69,-921.76,-982.29,-1021.6,-1086.5,-1160.3,-1212.6,-1259.3,-1304.3,-1341,-1392.9,-1468,-1533.4,-1577.3,-1630.5,-1699,-1757.4,-1816.4,-1898,-1980.6,-2051.4,-2130,-2222.8,-2322.4,-2421.2,-2517.1,-2621.9,-2732.1,-2836.2,-2954.5,-3089.9,-3204.4,-3291.2,-3362.6,-3394.7,-3360.2,-3241.4,-3006.9,-2654.5,-2231.6,-1766.5,-1253.8,-719.97,-209.13,280.7,758,1190.6,1553.1,1845,2063.9,2217,2315.9,2358.8,2356.9,2331.5,2285.1,2219.6,2150.2,2081.4,2007.1,1939.3,1890,1838.2,1770,1707.5,1651.4,1587.9,1533.6,1486.2,1431.3,1407.3,1423.2,1425.3,1421.9,1455.5,1496.1,1517.9,1547,1581.4,1607.1,1637.8,1661,1655.3,1637,1610.1,1566.6,1522.9,1467,1375,1277.4,1187.8,1080,963.25,844.99,716.02,596.12,476.97,336.28,208.93,104.24,-6.5525,-110.3,-209.33,-320.12,-407.24,-467.73,-541.33,-620.56,-696.39,-777.1,-838.22,-876.79,-928.36,-998.09,-1065.7,-1122.5,-1173.9,-1229.8,-1293.2,-1360.6,-1422.4,-1473.9,-1534,-1606.5,-1671.9,-1741.4,-1830.2,-1921.7,-2011.8,-2104,-2194,-2292.3,-2399.1,-2507,-2626.1,-2747.1,-2858.6,-2976.9,-3097.8,-3209.3,-3311.4,-3375.1,-3376.1,-3307.3,-3127.6,-2825,-2447.2,-2008.8,-1498.7,-947.44,-397.67,132.09,630.56,1080.5,1478.7,1827.1,2092.5,2264.5,2393.8,2487.2,2514,2499.6,2463.7,2403.6,2346.3,2286.4,2204.9,2135.6,2088.5,2051.1,2031.5,1998.4,1935,1882.7,1832.6,1762.8,1711.3,1684.6,1660.7,1655.9,1669.3,1678,1689.8,1719.2,1759.6,1792.3,1807.8,1818.4,1830.8,1832.2,1817.3,1793,1763.4,1719.1,1647.1,1552.7,1447.5,1339.3,1237.1,1127.4,996.38,867.86,748,617.64,489.52,369.85,248.21,142.81,46.803,-67.066,-169.15,-241.68,-318.88,-400.02,-468.84,-538.93,-607.97,-667.66,-729,-795.19,-863.65,-927.27,-975.39,-1021.4,-1080.7,-1145.4,-1207.7,-1263.5,-1316.1,-1378.4,-1450.9,-1530,-1610.7,-1682.5,-1759.9,-1851.2,-1932.7,-2014.7,-2120.5,-2229.5,-2333.7,-2445.8,-2563.2,-2690.3,-2820.9,-2936.4,-3047.6,-3152.8,-3223.9,-3253.4,-3221.5,-3090.6,-2856.9,-2530.7,-2120.6,-1650,-1141.8,-616.68,-97.827,393.25,836.1,1231.4,1581.3,1857.2,2055.3,2203.2,2294.4,2326.8,2328.7,2304.1,2252.7,2188.1,2110.9,2038.1,1981.5,1916,1855.4,1824.7,1782.2,1714.4,1657.6,1597.7,1526.8,1477,1440.3,1413.9,1421,1438.3,1453,1486.6,1517.6,1532.9,1564.1,1609.9,1644.9,1656.9,1648.7,1646.2,1646.4,1614.7,1560.9,1500.8,1420.7,1330.1,1234.6,1122.8,1009.2,898.68,778.53,657.33,538.02,420.39,316.04,217.99,118.12,18.088,-87.077,-183.56,-260.39,-335.27,-409.02,-476.78,-549.01,-617.72,-680.24,-745.42,-797.86,-840.66,-899.95,-965.45,-1019.7,-1070.3,-1122.9,-1181.9,-1245.7,-1300.4,-1349.7,-1413,-1491.5,-1570.6,-1648.3,-1738.7,-1836.6,-1924.7,-2017.1,-2129.5,-2245.7,-2360.6,-2479.4,-2597,-2719.8,-2845.7,-2954.1,-3038.2,-3086.1,-3071.5,-2975.9,-2784.3,-2502.4,-2143.6,-1691.9,-1178.5,-678.63,-181.06,339.9,821.31,1230.2,1584.8,1869.8,2085.8,2256.4,2368.8,2416.1,2420.4,2398.2,2354.8,2288.3,2208.8,2134.7,2060.1,1985.3,1929.8,1881.1,1819.2,1759.1,1706.6,1641.8,1563.8,1496.6,1452.6,1420.3,1398.6,1400.5,1419,1438,1453.7,1470.5,1503.9,1549.2,1575.2,1588.1,1608,1605.4,1565.9,1525,1486.8,1425.8,1347,1262.2,1165.8,1055.2,930.35,800.03,683.17,569.35,435.77,304.5,196.36,82.628,-43.036,-147.83,-237.25,-333.59,-422.16,-499.38,-583.42,-662.55,-723.97,-785.15,-852.42,-919.91,-987.79,-1045.9,-1099.5,-1169.5,-1235.9,-1281.6,-1338.6,-1410.2,-1473.8,-1541,-1605.1,-1655.2,-1726.6,-1813.7,-1878.9,-1954.5,-2056.4,-2142,-2222.4,-2324,-2428.1,-2540.3,-2662.3,-2761.5,-2855.9,-2981,-3113.1,-3229.7,-3340.8,-3447.4,-3543.6,-3618,-3641.7,-3582,-3414.4,-3133.8,-2760.2,-2315.1,-1806.9,-1249.2,-675.06,-112.38,428.95,925.93,1351.1,1706.8,1994.5,2203.2,2347.3,2442.1,2484.9,2489.7,2472.8,2435.7,2388.1,2336.5,2284.3,2243.2,2209,2176.7,2160.8,2149.7,2115.8,2069.2,2027.8,1985.2,1936.5,1892.7,1873.1,1873,1863.4,1849,1858.7,1881.1,1894.8,1909.5,1932.6,1950,1949.6,1942.6,1942.3,1925.8,1879,1831.9,1776.9,1681.4,1580.3,1500.4,1399.9,1275.6,1160.5,1040.5,906.4,781.46,662.25,541.19,429.74,320.09,207.91,108.83,18.913,-63.531,-130.1,-204.19,-289.98,-356.95,-424.46,-511.46,-576.88,-620.5,-680.13,-748.95,-817.41,-884.25,-939.18,-1002.1,-1080.8,-1150.9,-1217.8,-1285.5,-1351.4,-1437.4,-1522.2,-1584.1,-1669.2,-1768.6,-1839.1,-1924.7,-2035.4,-2122.9,-2218.8,-2347.9,-2457.9,-2550.5,-2669.6,-2801.4,-2918.8,-3033.4,-3159.4,-3277.5,-3372,-3455,-3499.2,-3443.5,-3286.4,-3044.1,-2698.6,-2261.1,-1761.3,-1214.1,-657.46,-116.98,414.1,906,1321.2,1672.2,1965.2,2177.1,2308.8,2391.5,2441.6,2451.3,2424.9,2381.8,2325.8,2261.7,2202.2,2138,2075.4,2048.8,2040,2004.3,1956.6,1915.4,1860,1796.6,1742.7,1690.1,1651.5,1637.7,1622.9,1616.7,1643.5,1658.9,1641.5,1654.6,1710.4,1744.9,1750.6,1771.3,1792.4,1764,1706.8,1671.3,1628.9,1544.7,1459.2,1374.1,1245.9,1111.9,1013.2,907.2,776.63,650.6,529.16,407.59,293.44,184.73,83.774,-10.688,-106.34,-194.55,-274.38,-356.85,-428.19,-482.14,-544.09,-612.3,-667.57,-727.95,-796.78,-846.2,-894.37,-963.98,-1023.4,-1067.6,-1121.5,-1176.9,-1235.2,-1298.1,-1349.5,-1416.6,-1501.3,-1555.4,-1617.2,-1723.7,-1812.1,-1888.7,-2003.8,-2117.5,-2219.8,-2338.1,-2448.3,-2565.7,-2709.5,-2832.8,-2942.6,-3064.1,-3155.2,-3207.2,-3222.9,-3149.8,-2971.1,-2705,-2352.8,-1927.2,-1437.7,-904.92,-383.73,111.14,591.59,1030.1,1405.5,1719,1966.3,2150.6,2273.6,2338.6,2364.4,2353.9,2308,2246.2,2173.9,2095,2019.3,1937.2,1857.2,1795.5,1727,1642.2,1565,1486.5,1397.9,1329.7,1286.4,1247.2,1222.5,1227.1,1250.1,1282.6,1322.4,1366.6,1412.3,1446,1467.7,1502.8,1542.2,1554.7,1547.8,1525.3,1473.6,1415.9,1359.9,1278.5,1183.1,1085.3,965.47,838.08,721.84,600.44,471.35,338.3,203.09,88.305,-11.383,-122.62,-230.04,-320.79,-412.69,-503.84,-582.95,-652.4,-718.2,-790.32,-864.2,-927.9,-989.99,-1050.8,-1106.3,-1171.9,-1239.4,-1293.1,-1350.1,-1409,-1462,-1530.2,-1604.7,-1667.2,-1736.8,-1812.2,-1885.9,-1979.9,-2079.7,-2164.3,-2262.4,-2377.3,-2484.7,-2598.9,-2726.3,-2845.3,-2963.5,-3095.3,-3221.1,-3326.1,-3409.6,-3446.7,-3406.2,-3275,-3035.1,-2682.1,-2248.2,-1752.8,-1198.2,-622.29,-68.151,459.42,956.56,1391.8,1746.2,2040.2,2280,2437.8,2526.8,2582.3,2590.5,2550.7,2497.3,2433.3,2366.5,2316,2256.3,2183.5,2133.5,2099.5,2061.9,2020.5,1960.5,1882.6,1810.8,1752.5,1708.2,1676.2,1649.8,1636.9,1641.5,1655.6,1679.3,1701.4,1709.1,1720.3,1743.7,1762.1,1770,1761.7,1726.3,1678.8,1631.8,1573.1,1502.8,1417.8,1302.3,1180.6,1075.7,953.52,807.4,672.98,541.91,400.19,269.15,144.58,13.392,-106.59,-210.09,-310.28,-409.76,-503.28,-583.4,-659.79,-750.82,-837.17,-897.9,-960.49,-1040.4,-1112.2,-1170.3,-1235.9,-1311.6,-1379.2,-1437.3,-1511.7,-1600.6,-1664.5,-1709.2,-1782,-1873.4,-1947.3,-2020.4,-2111,-2202.2,-2290.1,-2386.3,-2492.9,-2603.6,-2711.9,-2827,-2954.8,-3076.2,-3189.7,-3316.8,-3452.4,-3583.6,-3711.3,-3824.1,-3903.9,-3931.1,-3874.2,-3710.7,-3434.2,-3048.1,-2570.2,-2017.9,-1413.8,-800.18,-202.1,372,894.31,1344.7,1728.9,2044.1,2281.5,2448.6,2559.4,2617.4,2623.3,2599.7,2573.1,2532.3,2460.4,2386,2341.2,2314.9,2286.7,2260.4,2244.9,2230.5,2203.4,2165.7,2119.3,2058.9,1996.8,1954.6,1931.1,1917.3,1914.7,1918.9,1923.7,1937.6,1961.2,1978.5,1987.3,1992.5,1985.7,1968.7,1956,1933.9,1879,1803.4,1725.9,1637.3,1529.9,1411.5,1289.6,1171,1053.3,918.22,767.48,627.95,502.14,370.69,242.07,137.07,44.537,-53.653,-151.8,-243.64,-326.69,-394.68,-463.41,-549.88,-631.18,-692.15,-754.03,-820.98,-880.78,-938.54,-998.88,-1061.7,-1129.7,-1196.2,-1259.2,-1325.4,-1390.1,-1450.9,-1520.7,-1602.6,-1683,-1758,-1845.6,-1950,-2047.3,-2141.9,-2258.4,-2374.6,-2477.4,-2601.5,-2733.8,-2847.2,-2979.7,-3130.1,-3244.4,-3341.5,-3446.7,-3503.5,-3471.3,-3355,-3143.6,-2820.5,-2395.5,-1905,-1374.9,-805.17,-233.53,292.47,789.55,1253.3,1639.2,1959.8,2223.6,2402,2518.1,2594.1,2611.6,2584,2530.1,2458,2390.3,2318.2,2233.7,2168.3,2117.2,2061.4,2012.9,1962.8,1901,1832.7,1750.3,1680.4,1642.7,1596.9,1556.6,1564.1,1576.7,1578.2,1612.3,1656,1680.5,1712.3,1741.8,1752.2,1766.6,1770.5,1740.7,1707.6,1671.3,1598.9,1512.4,1428.8,1316.5,1187.4,1077.4,962.45,823.54,684.44,546.55,404.07,277.08,163.3,39.59,-87.387,-196.99,-292.34,-387.62,-483.6,-575.11,-660.34,-733.94,-800.88,-877.6,-957.56,-1025.8,-1089.3,-1150.8,-1210.5,-1278,-1345,-1407.2,-1476.6,-1538.7,-1588.3,-1657.9,-1746.7,-1830.6,-1914.5,-2001.5,-2091.9,-2193.1,-2293.2,-2392.1,-2510,-2637.9,-2763.2,-2893.7,-3023.1,-3147.5,-3278.2,-3409.1,-3527.4,-3624.4,-3681.5,-3674.1,-3569.8,-3343.8,-3012.8,-2602.2,-2110.3,-1550.9,-972.22,-403.17,157.24,689.52,1158.6,1559.2,1892.5,2149.4,2341.9,2471.7,2525.2,2540.6,2549.7,2517.9,2448.6,2383.7,2316.3,2249,2208.3,2175.1,2134,2100.4,2063.4,2009.5,1947.4,1878,1808.2,1751.6,1704.1,1662.9,1642.1,1644.4,1653.4,1663.1,1677.5,1686.1,1690.2,1707.6,1723.6,1723.8,1719.7,1698,1657.6,1625.7,1577.4,1491.1,1399.9,1297.8,1175.3,1068.3,956.6,810.87,676.62,558.72,419,286.26,182.56,69.157,-56.466,-163.65,-259.62,-354.45,-438.89,-526.2,-621.57,-697.56,-760.81,-838.12,-916.63,-991.19,-1066.4,-1122.9,-1181,-1265.3,-1330.7,-1374.5,-1446.2,-1521.6,-1574.8,-1644.2,-1730.5,-1808.2,-1886.5,-1968.5,-2045.7,-2126.5,-2224.3,-2338.5,-2446.2,-2539.7,-2650.2,-2781.1,-2904.3,-3024.3,-3158.1,-3298.3,-3430.4,-3546.4,-3652.2,-3739.5,-3766.3,-3707.3,-3555.5,-3284.3,-2896.8,-2435.8,-1911.6,-1329.5,-732.5,-151.06,406.13,915.73,1357.9,1734.1,2048.5,2292.4,2456.6,2556.7,2610.7,2613.5,2579.5,2541,2494.3,2435.1,2389.1,2357.5,2322.1,2285.3,2252.2,2226.6,2207.2,2175.4,2126.6,2070.9,2004.3,1938.9,1897.6,1865.2,1832,1821.5,1826.4,1820.4,1821.2,1842.8,1856.4,1853.6,1854.6,1854.4,1835.4,1800.8,1758,1706.1,1635.8,1540.3,1439,1349.6,1249.7,1122.2,987.75,855.37,717.39,587.96,473.68,351.14,217.14,97.848,-4.1927,-109.33,-212.87,-293.25,-361.11,-444.21,-531.95,-600.9,-666.78,-742.55,-809.99,-872.07,-946.62,-1021.9,-1084.6,-1142.1,-1199.4,-1257.9,-1322.3,-1395.3,-1473.8,-1549.5,-1619.1,-1685.9,-1758.3,-1847,-1939.3,-2017.9,-2103,-2205.8,-2307.2,-2414.7,-2536.1,-2653.6,-2773.6,-2905.7,-3032.8,-3157,-3290.1,-3416.6,-3518.9,-3599.3,-3658.9,-3653.5,-3520.9,-3271.6,-2949.5,-2541.3,-2041.8,-1494.9,-922.7,-333.91,232.43,745.18,1203.4,1604,1932,2181.8,2360.9,2477.1,2540.3,2562.7,2553.2,2521.5,2469.1,2401.7,2346.4,2310.3,2276.2,2249.6,2229,2197.6,2164.8,2127.3,2068.3,2002.8,1935.4,1862.4,1810.3,1782.2,1766.6,1769.4,1767.6,1754.1,1766.5,1790.9,1798.9,1818.9,1846.8,1843.7,1822.4,1799.6,1757.7,1695.7,1629.2,1557.7,1469.9,1368,1261.8,1137.9,992.14,859.49,743.11,611.56,480.36,369.87,256.8,141.73,45.877,-43.394,-139.22,-229.84,-306.54,-377.55,-455.3,-533.06,-601.53,-670.19,-734.31,-789.65,-860.05,-937.94,-997.24,-1056.2,-1121.7,-1178.3,-1243.7,-1321.8,-1394.6,-1474.2,-1558.8,-1627,-1700.2,-1800,-1901.4,-1990.2,-2091.8,-2216.7,-2334,-2431.3,-2541.4,-2672,-2802.5,-2939.5,-3082.1,-3203.5,-3303.6,-3390.5,-3436.9,-3409.5,-3293.5,-3077.5,-2755.5,-2338.9,-1846.8,-1300,-727.05,-151.82,403.29,904.28,1344.4,1741.9,2074.9,2315.6,2486.5,2606.4,2672.8,2695.9,2685.6,2646.9,2589.1,2527.9,2484.7,2452.7,2409,2370.2,2350.9,2331.8,2305.8,2267,2202.3,2125.1,2052.2,1986,1927.4,1875.3,1841.7,1828.2,1810.6,1798.6,1811.8,1821.7,1815.4,1808.1,1796.5,1789.6,1789.6,1760.5,1698.8,1635,1568.4,1486.1,1389.6,1285,1171.5,1040,905.63,790.06,665.55,516.17,379.87,262.51,144.26,38.1,-59.036,-165.74,-268.14,-359.44,-445.93,-518.72,-587.96,-664.83,-731.03,-795.13,-874.85,-941.72,-994.88,-1077.7,-1176.6,-1249.3,-1310.9,-1384.1,-1451.6,-1510.1,-1582.8,-1669.6,-1744.3,-1801.3,-1865.1,-1949.4,-2039.2,-2125.5,-2219.4,-2320.1,-2416.3,-2513.1,-2621.5,-2736.5,-2845.8,-2946.1,-3053.7,-3181.5,-3311.1,-3428.1,-3547.1,-3671.7,-3786.3,-3882.3,-3948.6,-3962.3,-3899.6,-3737.2,-3456.6,-3059,-2566.8,-2006.8,-1397.3,-765.08,-149.46,431.64,973.96,1451.7,1844.4,2161.8,2407.6,2576.6,2689,2763.1,2791.7,2785.5,2769,2737.3,2692.7,2661.4,2644.6,2638.9,2650.4,2656.2,2647.5,2648.2,2639.9,2593.1,2530.4,2471.4,2409.4,2349.6,2301.9,2266.3,2231.2,2197.2,2190.5,2201.7,2189.6,2169.9,2172.4,2173.8,2160.2,2133.7,2083.2,2028.5,1983.9,1915.7,1822.7,1731,1628.4,1515.2,1408.9,1289.1,1150.6,1019.4,889.9,754.76,630.33,515.24,402.74,295.75,195.84,112.69,36.026,-58.77,-150.17,-220.65,-297.94,-376.28,-436.43,-503.1,-579.89,-650.75,-728.13,-804.44,-869.28,-951.77,-1045.8,-1120.4,-1195.4,-1279.5,-1352.8,-1433.9,-1531.5,-1618.3,-1697.1,-1780.5,-1864.8,-1957.4,-2053,-2144.1,-2242.2,-2331.1,-2409.1,-2514.1,-2625.7,-2715,-2824,-2950.2,-3058.7,-3178.3,-3310.6,-3422.5,-3535.5,-3660,-3773.7,-3882.3,-3974.8,-4017,-3995.8,-3895.9,-3697.5,-3384.6,-2951.9,-2435.9,-1871.2,-1258.8,-630.84,-32.045,523.26,1015.6,1440.9,1811,2102.3,2312.8,2475.9,2579.1,2612.9,2616.2,2600.4,2560.8,2520,2483.1,2444.3,2419,2414,2420.4,2426.8,2416.4,2387.9,2355.8,2317.3,2264.1,2205.1,2147.8,2098.1,2067.1,2048.9,2034.6,2036,2049.7,2056.9,2068,2087.6,2089.5,2077.3,2074.7,2066.4,2030.6,1977.5,1921.2,1858.5,1775.9,1673.5,1569.1,1462.7,1342,1216,1090.6,957.9,829.35,712.84,590.54,464.97,355.72,252.74,149.29,66.81,-1.5384,-85.41,-173.98,-242.53,-299.69,-360.78,-429.66,-504.06,-569.72,-623.57,-686.4,-761.25,-828.91,-890.26,-959.86,-1036.3,-1114.1,-1194.5,-1275,-1352.9,-1429.7,-1502.9,-1575.7,-1657.7,-1745.6,-1834.9,-1934.5,-2036.8,-2126.6,-2220.2,-2331.9,-2445.4,-2556.4,-2673.2,-2788.1,-2902.8,-3028.3,-3157.5,-3282.9,-3403.6,-3514.3,-3610.7,-3673.2,-3669.9,-3592.8,-3426.3,-3132.9,-2722.5,-2242.2,-1704.4,-1109.8,-496.16,88.962,635.52,1148.3,1596.8,1957.8,2258.2,2500.7,2654.8,2738.2,2788.4,2807.1,2786.2,2733.2,2681.5,2651,2611.3,2560.1,2536.2,2524.2,2499.7,2483.5,2464.3,2417.6,2360.6,2296.3,2219.9,2155.9,2107.6,2061,2030.8,2023.6,2017.2,2004.9,2004.6,2019.1,2029.8,2033.9,2039.8,2033.4,2007.2,1976.4,1933.6,1864.6,1791.5,1719.7,1621,1503.5,1396.2,1284.4,1151.5,1018.3,893.98,765.54,637.51,516.9,394.87,278.51,178.2,72.476,-43.728,-137.88,-208.94,-281.03,-352.24,-425.17,-505.02,-573.18,-637.01,-715.42,-787.61,-849.9,-922.74,-997.48,-1075.2,-1163.1,-1232.2,-1283.9,-1356.9,-1447.3,-1534.1,-1618.6,-1700.5,-1786.3,-1880,-1963.1,-2039.2,-2135.3,-2238.4,-2320.3,-2400.8,-2503.6,-2606.6,-2699.4,-2799.4,-2901.7,-3005.9,-3127.9,-3247.5,-3348.7,-3459.6,-3584.8,-3703.1,-3820.3,-3940.3,-4051.2,-4151.8,-4238,-4283.4,-4248.1,-4109.8,-3875,-3534,-3068.7,-2508.1,-1889.4,-1227,-569.25,40.833,621.18,1164,1620.8,1992.5,2299.8,2529.8,2683.3,2779.4,2827.4,2842,2833.8,2800.1,2756.6,2723.2,2694.1,2667.9,2662.9,2675.8,2684.8,2692.6,2696.3,2668.4,2623.7,2586,2527.7,2461.8,2429.4,2397.3,2357.4,2352.3,2349,2325.8,2333.5,2356.5,2351.6,2343.2,2343,2331.7,2305.8,2269.5,2227.7,2169.6,2087.4,2006.6,1924.4,1815.9,1697.5,1576.6,1443.6,1317.2,1193.7,1050,902.09,767.39,639.13,516.28,405.12,304.73,203.87,102.07,8.9965,-82.111,-164.93,-226.06,-291.98,-366.99,-424.95,-490.89,-575.14,-643.27,-713.56,-800.15,-866.8,-931.8,-1025.6,-1114.8,-1190.3,-1273.4,-1355.5,-1439.7,-1535.9,-1619.8,-1686.9,-1767.5,-1866.4,-1962.3,-2050.4,-2141.1,-2235.7,-2329.2,-2425.8,-2531.1,-2638.6,-2741.8,-2844.4,-2949.8,-3057.5,-3175.1,-3305.5,-3427.9,-3539.1,-3668.4,-3806,-3914.3,-4002.9,-4078.4,-4100.3,-4044.7,-3896.7,-3621.6,-3223.7,-2739.3,-2180.4,-1564.1,-934.76,-322.71,265.95,813.14,1288,1693.1,2045.5,2322.6,2509.7,2633.6,2705.6,2725.5,2709.2,2666.2,2612.6,2559.7,2495.2,2436.1,2408.6,2391.1,2366.4,2345.6,2329.5,2311.4,2276.3,2220.5,2168.6,2122.5,2073.2,2039.7,2021.3,2008.2,2012.6,2027.9,2046.1,2073.4,2092.9,2104.5,2124.9,2133.3,2124.6,2118.2,2095.1,2047.1,1993.6,1922.9,1829.6,1734.1,1630.1,1510.6,1390,1264,1126.5,991.39,857.96,719.79,597.91,499.84,396.7,279.12,167.27,68.352,-20.828,-103.36,-181.64,-249.46,-317.93,-403.81,-481.88,-541.19,-609.88,-678.15,-740.5,-828.25,-909.88,-954.22,-1022.8,-1132,-1226.3,-1302.8,-1376.8,-1450.3,-1544.5,-1643.5,-1719.6,-1798.9,-1890.1,-1981.7,-2090.2,-2201.9,-2296.9,-2399.9,-2508.4,-2608.9,-2729.2,-2866.7,-2992.6,-3115.5,-3246.6,-3381.8,-3519.4,-3649.6,-3764.3,-3852.8,-3891.9,-3870.3,-3766.6,-3542.5,-3196.3,-2749,-2220.3,-1647.3,-1049,-428.56,173.32,725.19,1230.4,1672.3,2035.4,2325.7,2534.1,2663.7,2746.1,2790.7,2787.8,2742.7,2672.9,2602.5,2543.3,2486.2,2428.8,2373.8,2321.5,2284.7,2257.4,2211.3,2148.1,2082.9,2017.9,1961,1901.7,1835.9,1814.8,1843.7,1856.4,1855.2,1878.1,1896,1900.1,1923.6,1950.6,1955.9,1952,1937,1901.5,1860.1,1811.6,1733.6,1635.7,1545.8,1452.8,1333.9,1200.9,1063.8,917.81,777.07,645.1,505.23,370.78,253.85,130.71,2.1564,-106.59,-200.38,-290.26,-376.58,-470.48,-567.44,-643.68,-703.16,-768.27,-841.81,-914.27,-982.18,-1051.1,-1122.7,-1187.9,-1250.3,-1321.3,-1392.8,-1464.9,-1550.5,-1633.7,-1706.8,-1791.7,-1879.4,-1954.8,-2039.5,-2131.9,-2213.1,-2301.3,-2403.8,-2505,-2611.1,-2718.7,-2816.6,-2927.5,-3056.7,-3176,-3295.6,-3432.8,-3564.4,-3690.2,-3826.4,-3950.1,-4058.7,-4167.5,-4224.6,-4183,-4058.7,-3831.7,-3468.8,-3004.7,-2465.1,-1855,-1221.9,-594.25,30.032,616.67,1135.5,1586.1,1964.5,2271.4,2499.6,2644,2735.2,2785.4,2788.9,2773.5,2740,2673.6,2612.9,2568.7,2513.2,2468.8,2448,2424.4,2404.8,2392.8,2364.7,2316.5,2251.4,2188.7,2156,2127.4,2088,2078.7,2090.7,2089.9,2101.2,2128.9,2144.3,2159.1,2178.3,2185.3,2190.4,2192.6,2173.6,2134.9,2073.6,1999.2,1935.5,1854.3,1736.1,1623.9,1516.9,1377.6,1228.1,1091.5,958.51,836.34,714.81,578.33,458.41,362.78,255.93,145.77,55.783,-30.695,-116.14,-184.86,-254.4,-335.41,-404.53,-465.77,-540.15,-611.99,-675.75,-751.73,-826.28,-887.16,-954.26,-1020.3,-1080.6,-1160.8,-1242.1,-1300.5,-1370,-1455.8,-1533.7,-1616.4,-1706.3,-1798.5,-1910.1,-2020,-2107.8,-2206.4,-2318.4,-2427.4,-2556.3,-2699.4,-2832.9,-2970.7,-3108.4,-3229.9,-3352.2,-3462.5,-3517.3,-3506.4,-3422.6,-3236.1,-2933.7,-2534.8,-2071,-1557.9,-1003.8,-440.18,101.45,613.63,1084.6,1491.9,1824.9,2087.7,2288.9,2430.8,2513.2,2544.8,2537.3,2506.6,2463.2,2402.3,2334.4,2274.9,2211.7,2151.7,2117.4,2079.7,2016.4,1957.9,1902,1824.7,1747,1689,1643,1608.9,1595.4,1606.5,1630,1650.6,1681.7,1724.9,1749.8,1765.9,1802.2,1831.7,1831.4,1822.1,1801.8,1756.4,1699.7,1631.7,1546.6,1463.9,1376.3,1259.4,1135,1017.8,887.35,748.4,612.51,476.01,357.4,254.3,135.17,20.271,-64.575,-153.09,-255.97,-343.53,-421.24,-505.37,-580.78,-642.06,-708.41,-783.76,-852.99,-914.29,-975.15,-1033.1,-1095.5,-1175.8,-1254.1,-1307.8,-1360.9,-1430.8,-1496.9,-1563,-1647.9,-1731.7,-1809.9,-1908.2,-2011.5,-2104.7,-2212.8,-2327.3,-2432.1,-2555.9,-2691.1,-2807.3,-2930,-3068.1,-3189.3,-3294.2,-3380.9,-3412.9,-3370.5,-3242.6,-3012.4,-2683,-2270.9,-1804,-1311.6,-794.6,-266.81,225.88,672.77,1078.1,1416.8,1690.8,1915.3,2070.4,2161.3,2214.1,2224.4,2211.2,2200.1,2162.1,2094.6,2039.9,1996.6,1950.9,1918.9,1895.2,1857.8,1808.2,1759.1,1709.3,1648.3,1586.8,1544.8,1514.1,1484.1,1465.4,1460.7,1466.1,1480.6,1498.8,1517.8,1537.1,1556.3,1577.6,1588.2,1576.7,1558.5,1534.6,1484.7,1416.2,1348.3,1272.7,1178.7,1074,960.57,839.75,725.4,609.77,477.11,349.26,237.5,120.99,9.1653,-84.36,-178.29,-272.96,-361.53,-452.84,-534.71,-603.91,-682.45,-761.11,-822.61,-882.54,-952.08,-1024,-1088,-1142.2,-1204.2,-1278.9,-1342.7,-1395,-1457,-1529.5,-1605.8,-1682.2,-1748.4,-1814.5,-1901.7,-1996.1,-2083,-2179.9,-2281.6,-2369.8,-2466.6,-2578.8,-2683.1,-2797,-2933.3,-3057.3,-3171.4,-3304.2,-3432,-3531.7,-3613.8,-3659.6,-3632.3,-3521.7,-3319.8,-3018.8,-2636.9,-2195.6,-1706.9,-1193.2,-675.6,-170.28,296.68,711.61,1080.3,1395.2,1642.2,1824.4,1954.1,2035.2,2066.5,2066.3,2061.8,2045.1,2005,1967,1939.3,1907.3,1885.7,1884.4,1881,1863.6,1835.7,1796.7,1752.2,1711.4,1669.6,1620.5,1584.2,1573.8,1562,1547.3,1558.7,1575.9,1580.7,1599.1,1618.2,1620,1632.8,1644.4,1628.6,1608.6,1577.2,1514.5,1455.1,1399.9,1310.7,1205.6,1106.8,989.82,858.47,744.62,638.03,517.18,400.27,300.97,202.84,102.7,7.1952,-88.859,-178.12,-256.18,-340.98,-428.03,-498.44,-562.02,-627.14,-688.71,-752.27,-813.37,-863.83,-924.31,-1001.9,-1062.5,-1100.1,-1157.5,-1241.9,-1310.1,-1359.3,-1426.5,-1505.6,-1568.2,-1629.8,-1717.4,-1818.9,-1910.3,-1995.6,-2092.1,-2199.8,-2311.2,-2428.1,-2549.7,-2667.1,-2778.5,-2893.9,-3012.2,-3105.1,-3159,-3186,-3151.8,-3004.2,-2770.7,-2485.3,-2114.7,-1664.4,-1194.3,-717.32,-228.48,241.65,668.84,1047.9,1370,1626.9,1821.8,1969.5,2077.3,2138.3,2156,2144,2120.5,2100.2,2069,2025,2001.7,1987.2,1949.4,1917.8,1900.6,1858.3,1803,1754.9,1690.1,1621.2,1580.4,1552.6,1526,1511.6,1505.4,1505.2,1518.4,1540.2,1564.7,1588.3,1597.9,1594.5,1592.4,1582.2,1550.4,1507.7,1456.9,1393.2,1321.1,1232.6,1124.3,1015.6,907.61,788.35,662.6,535.1,413.47,303.21,190.51,80.978,-9.2758,-100.08,-200.7,-291.64,-375.53,-457.62,-527.44,-593.26,-667.43,-743.4,-814.17,-879.43,-943.78,-1012.2,-1078.4,-1136.9,-1198.5,-1270.3,-1339.1,-1396.3,-1458.2,-1535.2,-1613.7,-1685.7,-1759.1,-1843.1,-1939.9,-2034.2,-2119.5,-2216.9,-2324.8,-2422.8,-2525.1,-2646.3,-2771.4,-2895,-3017.1,-3131.4,-3240.8,-3341.7,-3421.8,-3466.7,-3445.6,-3338.4,-3146.4,-2857.8,-2476.9,-2035.9,-1541.3,-1011.6,-500.07,-12.516,466.37,898.15,1256.8,1560.5,1808.3,1991.2,2122.4,2214.1,2271.9,2296.5,2289.3,2275.4,2276.4,2277.6,2261.9,2238.6,2230,2246.9,2265.9,2256.6,2226.5,2191,2141.1,2076.1,2021.1,1989,1963.2,1932.3,1911.3,1902.7,1889.3,1877.2,1882.6,1896,1904.3,1902.4,1887.6,1868.9,1845.8,1802.5,1742.4,1680.8,1611.5,1519.9,1411.6,1307.2,1206.4,1089.6,962.14,842.75,725.08,601.48,481.21,373.12,279.12,187.68,90.015,0.27889,-77.795,-157.88,-238.34,-314.81,-387.8,-453.07,-521.76,-603.05,-677.44,-737.2,-800.9,-875.75,-953.73,-1025.6,-1088.9,-1157.6,-1240.8,-1321.1,-1386.6,-1451.9,-1523.9,-1596.2,-1675.4,-1764.2,-1852,-1942.4,-2040.3,-2137.2,-2236.2,-2337.1,-2431.3,-2535.8,-2655.5,-2763.9,-2871.9,-3004.1,-3132.2,-3234.4,-3338.2,-3449.9,-3541.8,-3605.1,-3629.4,-3571.7,-3412.1,-3170.4,-2839.2,-2401,-1896.9,-1378.4,-845.94,-301.78,218.18,693.1,1122.5,1491.4,1789.5,2025.5,2198,2314.4,2398.4,2442.9,2447.7,2453.5,2457.5,2436.8,2424.1,2429.4,2430.9,2443.8,2458.4,2447.8,2438.5,2429.4,2383.2,2317.5,2253.1,2186.6,2135.1,2093.8,2046,2013.4,2005.9,2005.9,1998.9,1976.1,1962.6,1982.9,1996.2,1973.2,1944.7,1921.8,1884.9,1830.9,1766.1,1692.9,1608.2,1507.5,1395.2,1277,1156.4,1040.1,926.62,805.75,678.84,562.57,462.86,361.97,253.68,156.04,72.403,-9.879,-92.493,-170.94,-241.27,-306,-375.44,-446.98,-510.79,-570.91,-636.87,-712.2,-786.26,-847.82,-913.95,-995.7,-1069.9,-1132.2,-1201.2,-1270,-1329.6,-1397.3,-1481.6,-1563.7,-1634.3,-1708.9,-1790.8,-1872.1,-1966.4,-2072.9,-2168.1,-2259.3,-2360.7,-2465.2,-2581.2,-2706.3,-2818.8,-2930,-3053.5,-3171.6,-3274.1,-3355.3,-3410.6,-3436.6,-3394.7,-3250,-3012.5,-2684.8,-2265.1,-1782.9,-1262.2,-716.61,-176.25,332.87,799.31,1215.4,1572.3,1861.8,2087.1,2252.6,2357.4,2417.7,2449.2,2446.4,2412.2,2367.9,2332.2,2310.8,2294.4,2277.1,2264.2,2254,2236.2,2198.4,2142.6,2085.7,2021.8,1944.6,1880.3,1828.5,1775.8,1749.5,1749.1,1745.5,1754.8,1778.9,1789.3,1797.6,1811.1,1806.6,1789.7,1773.3,1747.5,1707,1648.8,1574.9,1494.3,1401.1,1289.8,1169.6,1050.3,936.55,811.17,662.14,527.45,422.91,304.15,174.03,76.917,-2.9953,-91.039,-168.21,-238.07,-320.63,-398.89,-463.03,-534.38,-610.93,-671.03,-721.18,-777.83,-841.63,-916.27,-997.33,-1061.5,-1111.8,-1173,-1244.2,-1320.2,-1399.5,-1461.8,-1518.9,-1607.7,-1699.3,-1759.1,-1834.9,-1946.6,-2040.7,-2118.4,-2219.2,-2325.6,-2428.3,-2550.8,-2673.7,-2782.8,-2909.7,-3050.4,-3174.4,-3285,-3389.2,-3488.7,-3581.9,-3633.6,-3611,-3508.1,-3313.2,-3021.6,-2635,-2152.3,-1610.7,-1053.3,-481.48,86.172,610.21,1078.7,1484.7,1822.1,2093.1,2288.8,2419.4,2511.5,2558.1,2559.4,2546.3,2523.6,2485.9,2454.2,2437.9,2427.5,2424.5,2429.2,2427.4,2407.7,2374,2333.6,2284.2,2220.6,2148.5,2082.2,2031.3,1993.7,1965.7,1948.9,1942.6,1942.5,1949,1959.4,1960.1,1951.1,1951,1952.5,1927.1,1882,1830.9,1755.8,1667.3,1592.6,1507.5,1396.8,1282.9,1159.8,1022.3,892.36,769.55,651.64,540.12,411.26,276.74,175.14,88.137,-9.4504,-101.81,-181.71,-252.74,-323.88,-411.03,-498.13,-562.82,-617.07,-677.4,-757.63,-852.11,-922.26,-974.5,-1050.2,-1131,-1194.9,-1268.4,-1351.5,-1427.6,-1506.8,-1584.4,-1650.3,-1722.5,-1809.9,-1897.4,-1979.3,-2069.2,-2170.6,-2264.8,-2348.8,-2443.4,-2546.5,-2645.5,-2751.3,-2866.1,-2978.2,-3091.4,-3212.4,-3335.7,-3456.5,-3574.4,-3689.2,-3796.6,-3888.5,-3951.1,-3959.8,-3893.4,-3735.7,-3464.7,-3078.4,-2607.1,-2073.1,-1487.5,-882.85,-296.94,261.74,793.45,1270.7,1664.6,1980,2227.4,2411.8,2543.9,2621.2,2651.1,2667.8,2676.7,2668.7,2663.8,2658.3,2644,2655.1,2686.7,2701.8,2719.4,2744.2,2736.3,2704.3,2665.4,2601.1,2526.3,2467.6,2418.1,2381.6,2355.3,2318.9,2293.1,2288.9,2271,2252.1,2261.7,2258.7,2224.1,2197,2171.7,2126.6,2077.1,2013.8,1923.4,1833.3,1741,1622.8,1500.5,1382,1246.3,1115.1,1005.3,883.28,749.27,635.33,528.89,417.49,320.01,227.81,130.86,53.078,-14.737,-99.178,-179.28,-249.27,-330.16,-398.53,-450.44,-528.26,-613.82,-674.44,-743.85,-828.49,-903.4,-987.51,-1080.2,-1156,-1234,-1321.2,-1400,-1482.8,-1566.7,-1639.8,-1732.1,-1836,-1911,-1987.3,-2090.1,-2175.9,-2243.1,-2334,-2440.9,-2539.8,-2637.6,-2740.4,-2843.4,-2949.2,-3064.5,-3187.5,-3309.7,-3424.3,-3529.8,-3634.1,-3742.6,-3836.8,-3889.7,-3882.3,-3792.2,-3602.1,-3308.2,-2915.2,-2444.1,-1915.9,-1342.5,-757.17,-194.63,338.54,828.42,1253.5,1610.8,1903.1,2133.5,2300.1,2399.5,2449.6,2468.7,2463.6,2455.5,2449.3,2425.7,2395.9,2383.9,2383.7,2387.5,2399.2,2407.3,2389.9,2351.1,2309.5,2258.5,2196.8,2146.7,2100.7,2047.9,2013.7,2000.4,1989.1,1984.9,1991.4,2002.7,2008.7,2002.4,2005.1,2013.5,1989.8,1951.5,1918.8,1860.5,1791.7,1730.9,1636.2,1520.2,1420.7,1307.6,1183.3,1080.1,965.61,826.72,704.23,594.21,476.83,370.02,271.75,163.16,65.21,-6.712,-83.265,-168.15,-227.59,-276.87,-349.37,-423.14,-481.63,-541.72,-602.06,-666.51,-746.66,-819.5,-877.44,-945.11,-1016.2,-1080.5,-1155.7,-1238.3,-1314.1,-1391.7,-1473.1,-1551.3,-1631.2,-1716.9,-1803,-1883.6,-1961.7,-2053.8,-2160.8,-2258.6,-2350.3,-2462.4,-2576.9,-2672,-2787.3,-2932.1,-3049.4,-3145.2,-3268.3,-3391.2,-3483.8,-3567.3,-3625.6,-3621,-3541.5,-3365.5,-3079.5,-2697.6,-2232,-1705.4,-1143.2,-562.6,4.259,540.36,1033,1444.4,1791.3,2104.2,2327.8,2456,2560.6,2631,2644.4,2642.1,2622.5,2583.4,2559.4,2529.9,2492.4,2494.7,2505.8,2485.3,2474.8,2477.6,2451.5,2402.5,2344,2270.7,2199.7,2146.5,2105.2,2073.9,2055.8,2046.7,2037.3,2024.5,2020.1,2030,2036.3,2026.3,2006.6,1979.2,1946.5,1914.6,1865.3,1788.7,1713.5,1637.1,1531.9,1420.7,1314.8,1184.6,1049.2,929.45,795.4,659.01,546.82,427.45,298.61,192.88,95.625,-4.4665,-87.012,-158.01,-233.51,-312.74,-393.87,-468.72,-535.53,-606.66,-676.17,-733.94,-794.32,-867.06,-947,-1032.1,-1113.6,-1181.7,-1250.3,-1333.4,-1417,-1489.1,-1568.9,-1667.3,-1763,-1849,-1939.5,-2029.5,-2114.5,-2211.2,-2314,-2400.5,-2481,-2572.9,-2670,-2767.8,-2868.9,-2967.4,-3060.8,-3155.7,-3262.1,-3381.9,-3496.4,-3596.6,-3710.4,-3844.6,-3964.2,-4062.8,-4161,-4248.7,-4298,-4292,-4216.2,-4048.1,-3761,-3353.9,-2857.5,-2291.5,-1671.9,-1039.7,-428.5,154.46,707.3,1214,1637.4,1961.1,2213.4,2409.7,2540.1,2613.3,2654.8,2682.8,2694.2,2680.3,2658.8,2651.3,2653.1,2662.6,2688.5,2727.3,2761.6,2775.1,2772,2757.5,2722.3,2674.6,2624.2,2566.6,2518.7,2487.8,2450.4,2414.7,2400.9,2394.3,2381.4,2363,2346.6,2344,2347.1,2340.4,2319.5,2280.8,2231.3,2177.5,2110.6,2028.9,1932.1,1822.4,1716.4,1606.8,1484,1365.4,1238.1,1091.6,962.5,848.54,723.88,613.51,518.42,411.37,316.4,243.95,158.02,63.811,-11.041,-79.346,-152.52,-222.42,-294.71,-370.96,-442.98,-519.42,-597.85,-661.8,-727.63,-806.35,-877.62,-954.16,-1049.3,-1127.7,-1190.3,-1274.1,-1367.6,-1454.2,-1538.2,-1609.3,-1683.3,-1785,-1882.7,-1955.2,-2034.2,-2132.9,-2236.8,-2338,-2438.9,-2546.1,-2652.8,-2759.1,-2885.6,-3016.5,-3123.2,-3232.7,-3359.1,-3472.5,-3574.4,-3671.5,-3739.9,-3764.5,-3718,-3561.3,-3299.8,-2950,-2504.4,-1979.5,-1412.2,-828.66,-253.25,299.29,822.99,1289.8,1667.2,1964.9,2209.5,2391.6,2497.3,2555.8,2591.7,2595.8,2568.4,2525.1,2484.1,2457.9,2432.2,2403.6,2395.2,2393.6,2378,2365.2,2347.9,2306.7,2255.7,2196.6,2134.9,2094.8,2062.3,2027.1,2012.2,2010.1,2013,2028.9,2031.3,2022.7,2043.8,2072.1,2071.7,2059.6,2042.6,2010.4,1963.6,1900.6,1824.6,1735.2,1624.5,1508.6,1396.2,1274.3,1151.1,1022.7,871.74,729.96,615.6,496.16,376.79,270.53,152.72,40.762,-42.267,-128.94,-216.35,-285.77,-373.51,-470.32,-532.63,-594.64,-675.5,-736.93,-797.42,-880.74,-951.75,-1012.3,-1089.9,-1170.8,-1248.8,-1330.1,-1403.7,-1475.7,-1555.3,-1632.2,-1713.1,-1803.8,-1882.5,-1954.5,-2046.1,-2137.4,-2208.9,-2300,-2421.4,-2524.5,-2613.3,-2727.3,-2845.4,-2951.3,-3070,-3193.8,-3313.3,-3444.6,-3567.3,-3666.7,-3769.6,-3875.1,-3956.7,-3993,-3958.9,-3842.9,-3628.8,-3289.6,-2843.3,-2326.1,-1752.5,-1150.4,-549.63,31.178,565.64,1047.4,1474.3,1825.5,2105.5,2318.4,2449.4,2524,2565.8,2564,2545.6,2530.9,2490.7,2434.8,2402.5,2391.1,2381.2,2364.2,2347.8,2344.5,2333.8,2299.9,2262.2,2221.1,2166.7,2117.9,2085.7,2062,2046.7,2041.8,2043.8,2047.9,2052.3,2060.2,2070.1,2076.7,2077.5,2070.4,2057.5,2034.1,1988.6,1928.6,1861,1779.4,1695.9,1608.8,1488,1345.1,1217.6,1098.2,967.3,835.29,712.69,588.34,454.54,330.48,227.39,122.43,12.092,-80.271,-161.83,-245.11,-316.24,-384.91,-470.95,-550.07,-606.71,-671.67,-753.94,-831.02,-900.35,-962.62,-1015.6,-1081.3,-1162.7,-1232.4,-1300.5,-1386.8,-1468.8,-1540.5,-1619.5,-1695.2,-1764,-1848.7,-1940.9,-2022.5,-2111.8,-2217.4,-2318.8,-2413.6,-2513.2,-2615.9,-2720.9,-2828.1,-2940.1,-3068.5,-3201,-3319,-3444.6,-3580.9,-3692.5,-3789.6,-3889.9,-3949.9,-3939.8,-3854.5,-3657.2,-3336.4,-2928.1,-2446.7,-1900.5,-1325.2,-744.57,-166.53,384.96,878.68,1302.6,1662,1957.5,2181.6,2331.9,2417.2,2458.8,2473.9,2459.8,2419.2,2372.3,2326.6,2280.5,2240.7,2211.1,2186.7,2161,2134.1,2108.5,2071,2011.1,1946,1890.3,1846.7,1817.8,1793.1,1776.6,1789.1,1805.7,1803.6,1820.7,1863.7,1894.4,1914.6,1935.5,1946.5,1949.2,1933,1889.6,1845.8,1800.6,1726.4,1634.9,1537.7,1422.3,1296.7,1174.3,1048,911.16,773.71,648.95,526.41,391.94,267.1,165.43,68.125,-25.131,-111.1,-203.7,-288.45,-350.54,-417.38,-496.09,-559.77,-614.59,-680.82,-743.32,-796.61,-863.61,-935.23,-990.45,-1049.2,-1119.8,-1183.1,-1246.3,-1316.7,-1384.6,-1458.9,-1540.5,-1618.9,-1710,-1821.9,-1936.1,-2038.2,-2129.9,-2237.6,-2370.3,-2494.7,-2613.5,-2753.7,-2894.1,-3028,-3172,-3301.5,-3410.9,-3520.9,-3599.1,-3609.4,-3544.7,-3371.9,-3073.3,-2678.8,-2207.9,-1674.6,-1105.5,-520.31,53.277,588.27,1082.5,1519.5,1878.4,2177.7,2418.8,2574,2661.5,2713.1,2724.1,2700.2,2662.4,2616.4,2566.1,2510.2,2449,2403.7,2380.2,2356.7,2320.8,2274.2,2222.8,2160,2077.2,2001.3,1951.6,1906.4,1872.4,1864.7,1857.3,1852.1,1867.5,1880.9,1890.6,1906.8,1909.2,1912.8,1931.1,1916,1863.6,1814.9,1757.1,1681,1604.5,1508,1383.6,1256.7,1128.1,991.07,840.88,671.5,516.34,392.68,261.91,125.46,9.5489,-106.77,-228.15,-339.25,-448.02,-539.19,-607.72,-693.1,-789.61,-870,-949.84,-1021.2,-1073.9,-1144.2,-1227.4,-1292.5,-1360.6,-1438.1,-1503.8,-1574.1,-1657.6,-1736.5,-1814.2,-1892.7,-1969.8,-2058.9,-2147.2,-2221.9,-2311.5,-2418.5,-2519.5,-2628.8,-2751.2,-2864.6,-2975.8,-3095.3,-3215.2,-3337.5,-3467.3,-3605.6,-3744.2,-3865.7,-3983.1,-4107.1,-4204.2,-4259.4,-4260.3,-4160.5,-3948.8,-3625.5,-3171.7,-2634.3,-2064.5,-1448.2,-812.95,-208.98,362.29,880.46,1330,1730.9,2058,2289.2,2455.8,2565.8,2620.5,2643.3,2631.1,2592.1,2560.2,2530.4,2492.8,2464.8,2444.2,2425.4,2425.7,2434.3,2417.6,2380.3,2344.2,2299.7,2239.3,2184.8,2144.6,2110.6,2087.3,2080.3,2085.8,2092.4,2090.4,2096.6,2125.4,2150.8,2152.2,2142.4,2132.1,2112.7,2068.2,2004.5,1943.8,1871.2,1767.2,1659.8,1557.9,1436.4,1302.4,1168.7,1029.5,894.11,766.25,635.83,511.06,398.83,287.52,172.2,64.972,-20.984,-95.351,-178,-263.03,-337.33,-405.34,-472.56,-543.4,-615.28,-672.99,-723.7,-789.53,-861.78,-924.2,-984.94,-1052.2,-1122.5,-1195.8,-1274.4,-1353.2,-1428.4,-1507.3,-1590.5,-1675.6,-1774,-1876.3,-1964.8,-2063.4,-2179.5,-2287.5,-2407.5,-2552.2,-2681.1,-2801.6,-2944.1,-3073.3,-3172.8,-3274.8,-3362.4,-3385.5,-3328,-3185,-2938.8,-2594.3,-2180.4,-1702.6,-1162.9,-607.59,-71.262,447.95,929.09,1350.2,1718.1,2023.3,2249.1,2398.4,2481.3,2517.7,2526.3,2514.9,2482.6,2414.2,2328.7,2267.8,2215.3,2158.6,2125.6,2087.2,2021.5,1967.4,1906.6,1817.3,1747.7,1696.6,1633.6,1582.5,1553,1540,1552.3,1575.5,1601.1,1631.3,1654.9,1685.3,1722.3,1727.8,1714.5,1710.9,1688.5,1637.9,1584.4,1519.5,1427.9,1321.3,1207.8,1084,955.13,824.62,683.32,541.57,419.45,296.29,156.53,33.461,-63.928,-161.52,-257.88,-345.46,-434.17,-523,-602,-671.05,-740.22,-814.63,-887.86,-958.54,-1024,-1079.5,-1140.6,-1209.4,-1264.8,-1317.8,-1383.8,-1446.5,-1505.7,-1573.8,-1650,-1735.3,-1821.3,-1902.1,-1993.6,-2096,-2196.2,-2294.8,-2393.1,-2507,-2644.7,-2767.5,-2868.7,-2997.1,-3146.5,-3267.4,-3363.6,-3465,-3553.1,-3579.9,-3522.6,-3378.5,-3131.2,-2779.2,-2348.7,-1852,-1303.9,-746.26,-200.39,330.12,817.34,1240.3,1605,1907.9,2136.2,2293,2393.9,2453.2,2474.6,2462.8,2435.3,2402.1,2357.2,2308.6,2276.3,2256.4,2229.6,2197,2171.8,2146.4,2096.2,2020.2,1943.2,1871,1802.5,1758.6,1739.1,1722.1,1719.6,1734.4,1738.2,1743.2,1764.7,1772.5,1774.4,1789.6,1777.2,1742.5,1731.5,1699.8,1614.7,1537.4,1466.7,1351.5,1225.3,1113.4,982.41,844.34,715.9,575.33,441.57,325.55,190.02,54.431,-45.534,-142.03,-243.56,-331.95,-428.46,-522.66,-589.56,-663.44,-747.35,-807.69,-869.24,-946.75,-1011.4,-1072.7,-1142.8,-1205,-1267.2,-1334.7,-1394.4,-1459.1,-1532.9,-1591.9,-1645.4,-1723.2,-1814.9,-1897.8,-1981.2,-2072.3,-2157.3,-2245.2,-2350.4,-2453.7,-2554.4,-2670.9,-2783.4,-2891.6,-3025.9,-3161.1,-3271.9,-3392.3,-3521.3,-3621.7,-3698.7,-3754.1,-3744.1,-3632.7,-3421.4,-3119.8,-2717.7,-2222.5,-1685,-1129.1,-546.18,15.324,508.01,969.64,1410.2,1764.8,2019.7,2212.7,2351.4,2439.3,2489.9,2505.8,2501.1,2483.5,2445.1,2403.5,2371.4,2342.1,2334.3,2341.7,2325.8,2302.3,2287.8,2245.2,2174.2,2103.2,2032.8,1978.6,1948.9,1913.2,1875.2,1857.7,1846.1,1839.7,1855.1,1874.4,1880.8,1883,1879.5,1861.9,1834.5,1798.8,1748.6,1686.9,1618.4,1531,1423.5,1319.3,1209.7,1070.9,934.91,821.73,690.93,547.15,430.04,316.89,189.88,83.826,-1.4358,-93.689,-184.93,-269.54,-360.03,-443.75,-508.71,-575.35,-647.39,-704.45,-756.81,-824.03,-893.05,-951.57,-1002.2,-1049.2,-1103.1,-1158.4,-1208.5,-1277.2,-1358.9,-1423.1,-1488.1,-1562.3,-1629.4,-1716.4,-1818.9,-1895.8,-1984.2,-2112.7,-2235.2,-2353.8,-2489.8,-2611.9,-2724.1,-2849,-2962.3,-3056.2,-3131.9,-3152.3,-3095.4,-2960.8,-2727.1,-2381.1,-1950.8,-1478.3,-974.64,-438.42,92.58,586.61,1048.1,1451.4,1775.2,2047.9,2261.5,2393.9,2481.4,2531.9,2525.7,2503.7,2484.5,2433.1,2363.8,2308.1,2259.2,2218.5,2185.3,2140.2,2085,2025.5,1947.7,1851.4,1757.1,1680.3,1617.3,1563.6,1533.3,1528.3,1525.5,1523.3,1536.5,1558.6,1578.6,1592.8,1596.5,1594.9,1591.2,1572.3,1532.8,1481.2,1418.2,1338.3,1244.9,1146,1033.8,898.66,758.09,629.88,498.41,352.47,209.89,82.199,-35.285,-143.97,-248,-351.86,-445.38,-530,-625.04,-718.37,-785.51,-847.67,-927.78,-1009.1,-1080.5,-1148.2,-1215.3,-1284.9,-1351.1,-1409.1,-1472.7,-1544.7,-1611.1,-1672.4,-1742.3,-1824.7,-1905,-1977.2,-2059.8,-2150.5,-2233.9,-2326.1,-2430.9,-2529.8,-2636.2,-2759.9,-2887.1,-3018.7,-3147.5,-3266.3,-3393.3,-3520.4,-3633.7,-3754,-3859.3,-3900.6,-3882.4,-3792,-3578.8,-3249.7,-2841.3,-2351.3,-1788,-1192.8,-596.53,-17.02,524.88,1011.6,1430,1770.2,2037.9,2246,2393.2,2480.2,2522.5,2530.3,2516.1,2498,2473.7,2444,2428.3,2419.6,2408.2,2412.5,2420.7,2405.7,2383,2355.6,2299.3,2227.7,2163.4,2103.3,2051.7,2014.5,1990.2,1983.4,1984.7,1980.2,1975.9,1978.3,1988.8,2002,1997.2,1975.1,1955,1923.8,1867.3,1800.6,1726.9,1632.6,1516.8,1393.3,1274.5,1151.1,1012.7,878.18,752.05,609.91,458.48,325.61,209.54,99.243,-3.1836,-99.078,-193.36,-283.66,-362.49,-429.93,-504.49,-595.73,-673.41,-721.68,-782.13,-870.01,-943.92,-1001.1,-1070,-1144.3,-1219.7,-1295.2,-1351.2,-1409.5,-1496.1,-1574.6,-1641,-1731.8,-1824.4,-1897.1,-1980,-2077.5,-2173.9,-2274.5,-2380.4,-2487.6,-2596.2,-2701.9,-2812.1,-2937.8,-3074.1,-3206.9,-3322.3,-3427.1,-3545.3,-3664,-3744.9,-3784.6,-3773.7,-3659.8,-3424,-3096.3,-2673.8,-2145.2,-1563.4,-978.92,-385.36,204.94,748.08,1234.3,1660.8,2003.2,2266,2471,2612.6,2692.3,2734.4,2752,2748.4,2730.9,2708.1,2693.3,2689.9,2685.2,2684.1,2703.5,2731,2743.9,2737.8,2708,2652,2589.7,2537.4,2486.9,2431.8,2383.4,2350.1,2327.5,2313.8,2311.6,2312.7,2306.8,2299.7,2294.8,2279.3,2249.2,2219.4,2192.5,2150.7,2083.8,2004,1920.9,1824,1708.2,1584.9,1459.2,1331.2,1204.9,1074.1,938.93,815.98,700.47,581.73,476.39,384.1,283.32,182.11,99.181,30.508,-45.183,-140.14,-220.69,-265.73,-326.37,-416.61,-487.01,-546.95,-622.59,-686.66,-742.94,-820.9,-903.84,-968.76,-1026.3,-1101.3,-1192.5,-1263.4,-1318.5,-1400.9,-1496.7,-1574,-1653.3,-1750.3,-1852.7,-1956.4,-2062.6,-2167.8,-2269.2,-2379.4,-2517.9,-2661.6,-2775.1,-2880.9,-3003.6,-3115.3,-3203.2,-3287.3,-3346.4,-3319.5,-3185.3,-2965.8,-2667.1,-2285.1,-1836.1,-1334.9,-801.6,-284.32,193.24,651.01,1074.6,1420.6,1698,1927.3,2085.3,2180.6,2251.4,2282.9,2270.6,2250.4,2210.9,2151.6,2125.1,2111.4,2070,2051.4,2064,2045.9,2006,1972.5,1923.9,1861.7,1802.2,1739.3,1686.9,1657.9,1637.1,1624,1624.7,1626.6,1633.3,1658,1682.2,1691.5,1701.5,1712,1705.1,1681.4,1647.7,1604.1,1553.2,1489.1,1407.2,1317.6,1222.1,1113.1,995.03,877.53,758.46,632.22,510.22,405.75,302.81,192.64,98.49,17.531,-74.071,-165.94,-245.18,-317.15,-381.43,-450.25,-532.22,-601.37,-651.69,-711.12,-781.16,-844.99,-903.84,-963.96,-1026.5,-1091.1,-1154.6,-1217.4,-1284.6,-1357.4,-1428.5,-1498.8,-1587.9,-1693.1,-1777.8,-1842.2,-1928.3,-2037.2,-2136.8,-2231.7,-2342.9,-2458.9,-2564.1,-2672.2,-2790,-2898,-3000.8,-3118.6,-3225.8,-3287.3,-3305,-3270.2,-3154.1,-2941.7,-2627.2,-2237.1,-1817.4,-1365.5,-873.83,-389.14,62.443,488.05,865.01,1177.7,1439.9,1646.4,1795.5,1907.1,1975,1993.5,1998.9,2002.6,1976.5,1934.8,1916.2,1913.9,1910.2,1913.2,1924.1,1927.5,1913,1883.6,1849.8,1811.9,1765.7,1718.2,1674.6,1638.9,1615.2,1593.8,1582.3,1599,1616,1609.1,1609.8,1625.3,1628.5,1626.1,1626.2,1614,1586.9,1543.7,1483.6,1418.9,1349,1266.9,1177.3,1076.8,967.22,865.61,766.93,655.08,541.47,443.66,355.7,264.23,171.47,84.803,-0.093076,-83.661,-158.78,-230.7,-302.14,-364.77,-426.69,-499.75,-572.11,-630.72,-681.24,-737.58,-806.28,-877.55,-942.14,-1006.6,-1076,-1147.6,-1220.6,-1293.2,-1366.3,-1444.3,-1524.5,-1602.6,-1680.6,-1759.1,-1834.7,-1906.9,-1982.3,-2071.3,-2169.5,-2262.5,-2352.9,-2450.4,-2549.7,-2645.3,-2742.5,-2849.4,-2969,-3087.1,-3189.8,-3291.4,-3401.4,-3502.4,-3584.3,-3640.7,-3650.4,-3602,-3478.7,-3248.8,-2925.3,-2544.7,-2103.6,-1615.7,-1131.6,-661.32,-203.64,211.66,583.29,917.92,1185.8,1382.4,1532.7,1642.4,1714.9,1751.3,1751.3,1745.4,1750,1744.1,1730.2,1728,1734.3,1741.8,1755,1780.5,1806.4,1805.4,1780.7,1754,1718.3,1669.3,1626.8,1595.7,1570.5,1552.9,1543,1537.5,1536,1540,1547.9,1557.5,1576.2,1599.6,1603.1,1585.2,1565.1,1539.5,1498.6,1447,1386.5,1313.5,1229.7,1141.5,1050.2,948.74,840.06,736.84,636.66,530.74,424.65,329.03,245.86,168.31,91.163,16.319,-56.423,-129.25,-201.12,-272.88,-342.77,-401.46,-449.26,-506.03,-580.14,-647.58,-700.67,-765.29,-836.05,-890.53,-946.38,-1009.9,-1066.8,-1136.6,-1219,-1280.4,-1333.8,-1403.9,-1479.3,-1557,-1639.2,-1719.2,-1798.6,-1878.9,-1968.3,-2074.6,-2177.2,-2272.8,-2382.1,-2495.8,-2606.1,-2721.9,-2831,-2928.7,-3018,-3079.3,-3105,-3081.1,-2961.6,-2741.4,-2454.5,-2104.1,-1692.5,-1245.6,-777.9,-304.99,143.13,556.82,944.13,1284.5,1542,1725.9,1873.1,1987.3,2056.4,2087.8,2093.9,2083.2,2061.5,2030.9,2000.7,1980,1966,1957.7,1951.2,1932.6,1899.3,1858.6,1814.3,1767.5,1710,1643.6,1595.2,1576.6,1568.8,1562.4,1563.6,1573.8,1589.9,1609.2,1627.4,1638.8,1648.1,1664.1,1672.1,1652.7,1619.6,1586,1537.7,1470.5,1398.7,1320.9,1223.1,1112.7,1006.9,895.92,773.47,659.25,546.51,423.32,313.47,211.46,101.1,11.228,-67.763,-163.45,-240.01,-301.5,-386.15,-457.38,-509.53,-588.39,-665.77,-722.09,-794.04,-868.48,-931.93,-1010.9,-1093.1,-1160.2,-1223.2,-1286.9,-1364.3,-1451.7,-1522.4,-1591.4,-1671.7,-1741.1,-1816.8,-1913.6,-2001.5,-2089.3,-2191.8,-2283,-2378.4,-2497.7,-2600.9,-2689.6,-2800.3,-2913.5,-3023.4,-3154.7,-3283.6,-3390.9,-3503.9,-3624.5,-3727.3,-3802,-3845.5,-3833.8,-3718.3,-3489.2,-3183.8,-2795.9,-2311.6,-1784.9,-1245.8,-685.07,-138.32,365.07,827.76,1227.7,1559.4,1837.4,2040.4,2170.9,2269,2330.3,2340.6,2333.1,2333.9,2331.5,2319.7,2315.7,2326.9,2342.6,2370.5,2413,2428,2409.2,2404.9,2403.6,2360.1,2303.8,2269.2,2232.6,2187.5,2161.9,2161.4,2167,2165.1,2160.9,2163,2168.2,2174.4,2180.6,2177.4,2161.7,2131.2,2087.3,2042,1982.4,1893.2,1807,1729.5,1621.6,1500.3,1394.5,1270.9,1126.7,1003.5,891.46,765.84,644.34,538.39,438.25,340.86,246.67,158.37,75.842,-10.358,-98.545,-181.76,-262.61,-332.78,-395.24,-476.65,-560.78,-619.89,-689.77,-779.4,-847.43,-916.91,-1014.5,-1097.7,-1165.5,-1247.4,-1322.9,-1396.3,-1490.8,-1582.6,-1670.8,-1773.9,-1865.5,-1945.3,-2043.6,-2141.9,-2224.6,-2317.7,-2420.2,-2512.6,-2606.5,-2716.1,-2833.3,-2949.5,-3064,-3181.9,-3309.4,-3436,-3547,-3652.1,-3762.6,-3862.8,-3932.9,-3949.2,-3879.9,-3718.4,-3467.6,-3107.9,-2649.6,-2143.9,-1611.5,-1047.6,-479.78,54.442,547.85,995.18,1370.7,1668.4,1909.2,2092.2,2210.4,2285.8,2326.2,2325.4,2313.4,2309,2286.2,2253.6,2250.9,2268.8,2282.2,2295.6,2308.5,2319.3,2327.4,2307.7,2257.4,2207.7,2155.3,2096.7,2064.8,2050.6,2025.8,2012.6,2017.3,2012.2,2008.1,2023.5,2037.6,2040.5,2043.6,2043.3,2028.9,1999.6,1954.3,1897.2,1835.4,1759.7,1664.6,1564.7,1461.8,1348.6,1231.3,1109.9,984.8,866.61,747.78,627.39,526.53,437.23,343.61,255.34,168.16,80.34,9.3765,-56.708,-129.65,-188.69,-239.29,-301.99,-363.86,-416.51,-472.05,-530.16,-587.45,-651.23,-719.98,-781.65,-840.11,-910.15,-981.84,-1041.8,-1109.2,-1191.8,-1268.6,-1341.2,-1421,-1500.7,-1586.7,-1688.9,-1790.2,-1885.7,-1989.9,-2094.7,-2194.1,-2310.3,-2444,-2566.4,-2681.9,-2807.5,-2922,-3015.4,-3103.4,-3170,-3191.8,-3157.2,-3030.8,-2801.2,-2497.5,-2112.1,-1636.8,-1115.5,-580.47,-43.809,472.93,957.89,1389.5,1743.9,2038.5,2280.7,2445.8,2545.7,2608.8,2627.3,2600,2556.9,2516.6,2469.7,2414.3,2368.5,2333.7,2298.2,2271,2249.1,2208.5,2155.6,2102.3,2032.3,1949.4,1878.7,1824.1,1784.5,1764.5,1761.1,1766,1769.2,1771.5,1786.3,1808.6,1816.8,1812.8,1817.5,1825.7,1807.9,1761.3,1711.7,1659,1582.8,1485.3,1376.6,1260.4,1142.8,1019.6,879.7,730.79,597.43,485.83,368.09,235.1,122.5,34.933,-61.077,-159.57,-242.5,-324.44,-410.07,-493.02,-574.24,-645.59,-709.16,-775.9,-838.37,-898.72,-967.51,-1037.1,-1110.3,-1188.9,-1252,-1307,-1377.6,-1456,-1535.6,-1616.9,-1692.8,-1774.7,-1862.6,-1936.6,-2010.6,-2097.8,-2184.3,-2276.5,-2374.2,-2467.6,-2574.1,-2687.2,-2788.4,-2897.4,-3013.9,-3124.8,-3242.9,-3358.7,-3471.1,-3598.1,-3712,-3809.4,-3922.2,-4012.1,-4043.8,-4024,-3916.4,-3700.3,-3386.5,-2953.1,-2426.2,-1866.9,-1277.1,-670.04,-81.364,485.98,996.69,1417,1779.4,2083.4,2293.5,2430.7,2525.3,2573.7,2578.1,2556.1,2529.9,2506.7,2472.6,2431.1,2405.5,2400.1,2405,2413.5,2413.5,2395.9,2367,2332.7,2285.5,2225.4,2167.2,2120.1,2084,2057.9,2040.7,2032.8,2034.1,2041.5,2053.7,2066.3,2072.7,2072.9,2063.9,2043.7,2017.3,1976.7,1915.9,1847.2,1769,1674.7,1574.2,1461.5,1331.1,1203.8,1080,943.35,802.41,668.87,547.55,437.51,324.48,216.87,127.65,33.247,-64.941,-143.66,-218.86,-291.64,-354.72,-439.06,-525.15,-573.54,-629.09,-710.62,-777.81,-844.34,-921.81,-986.22,-1055.4,-1138.2,-1213.5,-1291.4,-1370.8,-1438.3,-1511.8,-1587.4,-1654.5,-1739.5,-1838.8,-1926.8,-2016.9,-2115.3,-2204.3,-2289.6,-2389.5,-2503.8,-2615.4,-2719.9,-2838.8,-2971.3,-3091.1,-3207.4,-3336.5,-3461.7,-3580.7,-3704.5,-3809.9,-3864.3,-3858.1,-3791.9,-3643.7,-3374.5,-2991.4,-2536.3,-2008.8,-1415.8,-820.22,-249.21,306.26,814.21,1251.5,1635,1957.5,2195,2353.5,2454.5,2506.6,2511.2,2485.3,2450.2,2408.9,2364.7,2314.7,2253.5,2214.3,2208.4,2186.9,2150.8,2130.4,2093.4,2033.4,1980.3,1913.5,1840.8,1808.9,1794.8,1764.3,1740.2,1743.7,1772.6,1805.3,1821.4,1838.8,1865.9,1885.6,1899.3,1896.7,1866.1,1830.6,1792,1736.9,1670.8,1577.3,1460.8,1356.9,1244.5,1104.4,972.86,846.75,711.43,592.7,479.62,351.84,236.3,136.71,35.469,-52.742,-124.02,-198.47,-278.96,-357.73,-428.56,-486.86,-542.07,-603.87,-667.78,-733.92,-800,-851.67,-899.6,-966.85,-1039.6,-1105.8,-1178.5,-1244.8,-1299.4,-1378.5,-1477.5,-1554.7,-1627.4,-1734.8,-1855.2,-1949.3,-2032.9,-2144.6,-2273.5,-2388.6,-2506,-2645.3,-2783.3,-2909.6,-3038.2,-3163.3,-3270.2,-3352.9,-3401.7,-3396.9,-3306.4,-3108.4,-2812.4,-2424,-1942.5,-1398.8,-828.59,-251.9,299.64,805.18,1262.2,1655.4,1985.7,2263.6,2462.8,2578.7,2649.9,2680.3,2665.4,2633,2585.4,2515.8,2450.3,2397.6,2348.3,2312.4,2284.5,2243.8,2198,2156.7,2101.4,2025,1945.5,1872,1812,1777,1752.1,1729.9,1729.6,1736.5,1735.6,1755.9,1785,1790.1,1796.5,1805.5,1787.3,1760.5,1728.9,1672.6,1612.6,1543.9,1439,1323.4,1211.2,1085.3,954.11,818.3,669.84,524.24,388.19,265.33,156.46,35.465,-93.746,-199.49,-291.34,-381.75,-466.25,-557.7,-646.7,-714.36,-785.61,-870.59,-943.28,-1006.4,-1076.2,-1144.1,-1206.9,-1275.8,-1349.4,-1420.6,-1492.1,-1559.9,-1622.7,-1697.8,-1779.5,-1848.4,-1925.7,-2018.4,-2101.4,-2189.5,-2290.9,-2384,-2488.1,-2605.1,-2705.7,-2818,-2951.3,-3065.2,-3182.6,-3325.5,-3455.3,-3575.6,-3705.5,-3819,-3910.6,-3984.1,-4002,-3927.7,-3751,-3468.2,-3077.8,-2590.3,-2032.2,-1434.4,-826.1,-232.03,335.78,857.17,1308.8,1689.7,1994.8,2219.6,2384.1,2492.7,2543.5,2561.1,2551,2513.1,2475,2438.8,2393.9,2360.4,2345.5,2340.9,2344.2,2337.6,2314.4,2286.9,2240.5,2171.8,2114.6,2069.1,2012.5,1965.8,1950.5,1946.5,1939.7,1938.6,1941.9,1943.4,1951.6,1971.2,1985.2,1976.5,1952.9,1929.8,1898.4,1843.2,1771.2,1691.3,1598.3,1493.7,1382,1262.2,1139.4,1010.2,868.83,736.25,620.78,500.35,379.75,272.03,162.72,58.747,-24.173,-104.94,-191.76,-276.5,-361.46,-431.7,-481.59,-538.36,-606.06,-675.78,-748.43,-805.55,-854.47,-923.95,-984.51,-1021.8,-1081.2,-1153.5,-1204.4,-1261.7,-1338.6,-1414.4,-1491.3,-1566.9,-1637.7,-1722,-1818.1,-1910.2,-2002.5,-2106.2,-2230.9,-2365.8,-2486.5,-2602.6,-2730,-2854.7,-2977.2,-3106.6,-3214.6,-3275.7,-3295.3,-3262.4,-3135.8,-2892.8,-2548.7,-2121,-1619.4,-1071.1,-509.01,48.808,583.74,1073.7,1507.8,1880.8,2181.9,2404.6,2559,2658.8,2707.3,2708.1,2670.4,2611.3,2555,2500.9,2433.6,2370.4,2327.6,2284.8,2231.3,2177.3,2125.7,2069.4,1994.6,1902.6,1813.6,1740.2,1694.1,1678.3,1665.8,1653.1,1664.5,1687.5,1701.7,1716.9,1735,1753.7,1773.9,1774.6,1745.5,1706.7,1664.5,1611.1,1542.5,1450.4,1340.5,1227.1,1102.1,967.56,847.58,726.66,575.41,426.87,314.34,203.28,75.479,-35.777,-131.04,-233.27,-326.09,-404.94,-492.67,-577.58,-648.9,-728.91,-807.94,-865.96,-926.16,-997.02,-1062.5,-1129.3,-1196.9,-1257.2,-1323.9,-1394.1,-1455.7,-1523.2,-1594.5,-1655.6,-1722.2,-1797.8,-1870.3,-1955.3,-2054.1,-2141.3,-2223.9,-2321.3,-2420.7,-2517.7,-2625.5,-2738,-2854,-2986.9,-3116.8,-3223.3,-3334.2,-3467.8,-3600.5,-3708.6,-3780.7,-3816.7,-3803.4,-3688.3,-3445.9,-3103.2,-2667.8,-2145.9,-1576,-973.75,-353.36,232.72,756.15,1225.2,1639.2,1987.4,2253.2,2429.4,2541.9,2613.5,2643.5,2637.8,2608.3,2555.3,2488.8,2433.5,2385.5,2330.9,2300.2,2302.3,2285.6,2248.4,2222.6,2178.2,2108.6,2052.5,1995.5,1932.9,1898.3,1875.5,1849,1841.4,1849.1,1860.1,1868.7,1870.7,1888.7,1907.6,1884,1852.2,1841,1810.6,1755.9,1685.9,1589.7,1494.1,1404.4,1288.7,1161,1036.2,906.78,785.87,659.24,511.88,383.42,277.14,157.44,41.088,-51.915,-142.38,-238.34,-330.59,-414.29,-484.23,-545.11,-615.57,-700.72,-778.63,-836.92,-895.72,-968.19,-1042.8,-1109.3,-1167.3,-1225,-1285,-1340.5,-1406.3,-1489.6,-1560.6,-1621.2,-1697.5,-1778.1,-1863.5,-1962.6,-2048.3,-2128.9,-2233.2,-2336.4,-2434.3,-2551.6,-2667.9,-2778.6,-2907.5,-3038.4,-3162.7,-3293.5,-3417.8,-3529.5,-3623.9,-3671.6,-3662.2,-3574.8,-3365.1,-3046.5,-2643.1,-2141.6,-1586.5,-1027.5,-436.68,161.47,693.37,1171,1600,1932.1,2185.7,2392.1,2525.1,2592.9,2619,2596.2,2548.3,2497.6,2432.3,2362.7,2300.8,2244.8,2207,2177.5,2139.2,2100.2,2052.7,1993.7,1932.6,1853.4,1772.9,1729.1,1700.1,1674.4,1671.5,1673,1677.2,1704.9,1737.2,1763.8,1790.9,1806.4,1812.2,1808.1,1783.2,1754.3,1726.1,1676.3,1597.6,1490.8,1375.9,1276.4,1163.5,1020.5,883.83,758.49,625.69,489.53,349.23,215.37,103.12,-11.322,-128.77,-218.65,-304,-405.36,-489.55,-561.74,-647.32,-719.67,-771.13,-831.76,-900.13,-964.64,-1028.8,-1091.6,-1157.3,-1222,-1274,-1330.9,-1406,-1480.5,-1554.6,-1639.9,-1728.1,-1818.4,-1910.9,-1997,-2088.5,-2198.9,-2311.5,-2415.8,-2532.4,-2670.2,-2811.2,-2951.7,-3095,-3221.8,-3330.4,-3440.4,-3524.3,-3536,-3467.7,-3310.4,-3044.1,-2670.4,-2200.9,-1659.1,-1081.8,-486.28,112.94,678.7,1180.5,1615.4,1989.7,2292.7,2512.2,2665.8,2767.9,2806.5,2797.4,2769.8,2717.9,2642.7,2567.7,2499.3,2440.7,2397.5,2360.8,2327.3,2299.6,2260.7,2194.6,2112.4,2036.7,1975.6,1917.6,1860.8,1826.5,1818.6,1811.5,1800.2,1806.5,1823.9,1831.1,1839.1,1852.6,1851.4,1837.1,1813.7,1770.2,1718.1,1660.9,1578.6,1485.5,1393.6,1271.2,1121,980.9,848.29,705.71,561.9,426.23,295.57,164.37,36.759,-76.139,-179.59,-284.39,-383.41,-475.14,-568.71,-654.97,-726.77,-802.07,-885.44,-958.5,-1018.5,-1076,-1142.8,-1235.1,-1336.8,-1409.9,-1466.7,-1537.6,-1612.9,-1687.6,-1765.9,-1836,-1911,-2004,-2088.3,-2161.9,-2249,-2349,-2460.6,-2576.6,-2676.3,-2776.1,-2896.6,-3020.8,-3143.4,-3270.6,-3401.4,-3542.3,-3680.7,-3801.4,-3923.8,-4037.3,-4110.6,-4154.4,-4146.6,-4015,-3749.9,-3383.6,-2918.9,-2370,-1771.6,-1144.2,-512.97,87.349,637.86,1129.5,1551.1,1893.5,2158.2,2353.4,2479.7,2546.6,2581.5,2585.1,2545.7,2497.5,2462.9,2409.2,2344.9,2315,2305.4,2289.8,2278.9,2268.1,2242,2199.5,2141.8,2082.8,2028.8,1971.5,1933,1922.2,1908,1894.6,1897.2,1898.8,1905.3,1919.1,1917.2,1920,1938.4,1925,1877,1835.3,1795,1731.2,1647.8,1559.6,1463.2,1343.4,1211,1086.3,956.49,813.69,676.87,550.68,426.36,300.56,176.47,64.915,-38.086,-140.77,-225.2,-295.59,-385.1,-480.4,-552.48,-617.38,-682.96,-737.05,-794.2,-866.62,-942.06,-1010.6,-1062.2,-1100.9,-1157.1,-1233.6,-1302.7,-1366.3,-1438.3,-1510.7,-1584.3,-1669.2,-1760.3,-1852.8,-1947.6,-2045.2,-2151.1,-2262,-2372.5,-2501.9,-2648.5,-2771.3,-2877.4,-3008.7,-3143.6,-3245.2,-3318.3,-3345.5,-3292.1,-3146.2,-2889.9,-2521,-2071.6,-1558,-995.32,-425.08,128.46,656.4,1137.7,1554.4,1904,2193.9,2414.9,2553.5,2637.5,2684.8,2675.6,2636.1,2599.2,2537.3,2460.4,2408.5,2355.6,2294.6,2262.8,2236.1,2180.3,2120.1,2058.6,1975.9,1889.5,1815.6,1746.7,1689.5,1657.8,1652.5,1659.4,1659.5,1660.7,1677.9,1692.5,1698.2,1708.6,1703.5,1678.7,1662.8,1634.3,1570.8,1502.3,1423.8,1313.6,1196.1,1076.7,941.34,803.97,666.79,522.32,382.75,249.46,120.65,2.8811,-115.3,-237.02,-341.18,-429,-521.09,-614.54,-697.18,-778.19,-861.94,-933.77,-1000.6,-1074.8,-1137.7,-1193.5,-1268.3,-1340.5,-1393.4,-1454.9,-1527.4,-1596.1,-1666.7,-1736.7,-1807,-1886.7,-1966.1,-2047.2,-2144.9,-2247,-2341.8,-2440.7,-2549.4,-2662.6,-2778.1,-2901.4,-3032.7,-3162.1,-3289.8,-3419,-3539.5,-3646.5,-3737.2,-3798.2,-3809.9,-3732.2,-3537.3,-3240.9,-2842.4,-2338.2,-1778.2,-1192.7,-578.73,20.734,563.31,1055.9,1498.7,1869.2,2144,2332.7
