-951.67,-1021.7,-1090.4,-1142.6,-1209.1,-1289.4,-1347.9,-1403.8,-1480.1,-1554.5,-1623.8,-1692.7,-1757.1,-1832.8,-1913.5,-1980.5,-2055.8,-2143.6,-2221.4,-2303.6,-2395.5,-2476,-2557,-2650.3,-2737.6,-2816.8,-2900.1,-2982.5,-3052.8,-3110.5,-3152.9,-3156.9,-3099.1,-2980.2,-2804.5,-2574.2,-2300,-1984,-1628.9,-1249.2,-854.8,-459.52,-78.445,286.49,620.62,907.73,1160.8,1380.2,1547.6,1680.1,1809.4,1929.1,2018.3,2089.7,2166.8,2236,2285.7,2341.8,2403.5,2443.4,2466.4,2473.2,2449.4,2408.9,2357.1,2287.5,2218.9,2148.5,2063.9,1997.8,1954.9,1901.7,1857.1,1846.7,1843.4,1838.6,1848.9,1857.4,1851.4,1855.3,1874.9,1881.8,1871.5,1862.3,1848.8,1816.7,1772.3,1719.8,1659.7,1599.1,1528.4,1437.5,1349.5,1273.7,1185.7,1088.9,1006.5,928.47,839.51,744.6,649.67,560.84,477.23,385.93,292.74,212.11,135.42,55.701,-22.639,-103.66,-185.13,-256.74,-322.72,-394.61,-473.08,-545.29,-605.77,-670.26,-739.19,-796.13,-854.09,-924.25,-987.31,-1045.3,-1110.8,-1173.1,-1235.2,-1304.5,-1369.5,-1436.3,-1509,-1573.8,-1643.2,-1724.3,-1793.8,-1861,-1946.5,-2035.4,-2122.1,-2213.8,-2304.1,-2396.8,-2493.1,-2583.2,-2675.5,-2771,-2856.4,-2943.3,-3036.7,-3113.8,-3161.5,-3172.9,-3135.3,-3042.2,-2880.9,-2647.9,-2365.3,-2039.2,-1660.6,-1245.4,-817.07,-385.42,38.135,445.11,828.59,1168.8,1454.4,1694.6,1895.1,2060.6,2202.2,2313.3,2385.3,2442.7,2508.1,2562.9,2591.2,2614.2,2650,2678.9,2676.4,2647.6,2601.4,2534.8,2454,2367.3,2277.1,2194.6,2115.6,2026.4,1950.7,1905.1,1863.6,1825.9,1811.3,1804.7,1805.2,1827.9,1846.9,1848.8,1860.2,1875.7,1875,1872.5,1866.5,1832.4,1781.9,1735.9,1679.5,1604.7,1528.5,1450.9,1359.2,1262.3,1168.8,1062.1,938.57,826.92,736.14,638.63,529.78,431.59,332.67,216.3,110.26,24.256,-73.994,-183.27,-281.14,-376.2,-468.69,-547.22,-629,-718.57,-795.12,-868.62,-955.57,-1040.5,-1117.9,-1194,-1263.3,-1334.7,-1414,-1483.5,-1556.8,-1652.5,-1735.1,-1795.1,-1871.1,-1957.1,-2035.8,-2124.9,-2218.5,-2307,-2401.5,-2488.4,-2566.7,-2660.9,-2756.2,-2839.9,-2932.7,-3029.7,-3125.1,-3229.3,-3329.7,-3429.8,-3540.1,-3636.4,-3729.5,-3841.9,-3934.3,-4003.6,-4087.6,-4153.1,-4166.3,-4136.7,-4039.2,-3859.3,-3609,-3275.7,-2881.4,-2457.4,-1976.9,-1454.9,-940.08,-422.94,77.065,522.34,947.38,1344.3,1655.1,1907.6,2138.6,2323.3,2464,2578.2,2662.1,2732,2801.7,2862.3,2916.5,2972.7,3027.5,3066.2,3080.7,3084.5,3076.4,3033.3,2962,2885.6,2806.5,2725.6,2642.9,2555.9,2473.3,2399.8,2336.9,2292.9,2265.8,2250.3,2242.1,2236.1,2246.7,2273.6,2282.5,2272.5,2264.5,2248.6,2223.8,2194.7,2141.4,2072.5,2006.7,1924.5,1825.1,1730,1627.8,1512.7,1398.1,1278.2,1154.2,1040.5,925.23,797.63,674.22,556.29,431.89,313.49,209.55,100.05,-19.99,-129.38,-224.03,-319.79,-422.93,-529.89,-637.32,-738.49,-829.76,-921.39,-1017.1,-1100.6,-1174.8,-1265.9,-1366.8,-1455,-1540.7,-1629.5,-1708.4,-1789,-1881.9,-1969.6,-2049.3,-2134.7,-2225.7,-2320.9,-2417.8,-2509.9,-2605.8,-2708.9,-2806.9,-2909.3,-3023.8,-3126.8,-3224,-3342,-3462.9,-3573.2,-3693.3,-3812.5,-3917.9,-4030.8,-4146.3,-4247.3,-4346.3,-4434.6,-4483.5,-4482.9,-4413.1,-4253.6,-4010.5,-3687.3,-3285.3,-2817.2,-2295.6,-1740.1,-1167.4,-582.86,-15.561,504.73,981.68,1411.7,1786.4,2112.9,2378.6,2582.8,2760.1,2908.1,3006.5,3079.4,3144,3197,3253.6,3311.5,3350.8,3374.1,3390,3395.6,3374.3,3309.8,3225.8,3144.5,3042.2,2923.3,2824.2,2733.3,2631.8,2544.9,2481.3,2424.2,2380.6,2361.7,2352.6,2346.1,2355.7,2376.6,2389.1,2393.5,2390.7,2376,2353.6,2316.7,2259.4,2194.2,2116.6,2023.8,1932.3,1826.4,1694.7,1571.2,1454.2,1314.9,1174.1,1046.6,908.75,764.29,634.37,509.08,375.48,245.96,125.61,-0.32606,-128.09,-243.38,-357.82,-476.86,-587.74,-698.1,-811.35,-910.74,-1000.3,-1089.9,-1177,-1269.1,-1364.1,-1444.6,-1518.9,-1601.5,-1684.8,-1763.5,-1844.3,-1927.9,-2010.7,-2092.2,-2172.2,-2254.1,-2346.5,-2442.1,-2526.1,-2611.4,-2712.6,-2817,-2922.7,-3036.5,-3147.4,-3260.5,-3387.4,-3512.6,-3628.6,-3748.8,-3876.2,-4003.8,-4120.6,-4222.9,-4320.2,-4401.5,-4433.9,-4391.7,-4259.3,-4043.7,-3754,-3369.5,-2892.6,-2358.1,-1772,-1150.5,-542.68,46.946,629.94,1170.3,1642.9,2055.1,2401.1,2682.5,2918.8,3108.1,3241.7,3337.1,3411.8,3466.5,3507.3,3542.8,3566.2,3576.7,3585.4,3581.1,3539.3,3464.6,3373.2,3255.7,3111.7,2973.1,2851,2729.3,2616.3,2523.8,2443.5,2386.6,2360.3,2334,2307.3,2314.9,2344.5,2361.5,2370,2379.7,2384.6,2382.8,2369.8,2334.9,2277.5,2203.4,2111.8,2004.1,1890.5,1769.4,1630.6,1487.3,1352,1207,1048.8,901.6,764.15,613.46,454.53,305.44,158.8,9.1683,-124.89,-250.89,-395.67,-535.66,-646.53,-764.64,-902.02,-1025.6,-1136.2,-1243.3,-1337.8,-1433,-1536.4,-1636.3,-1741.4,-1852.3,-1949.9,-2036.1,-2119.1,-2201.8,-2293.4,-2387.8,-2475.1,-2565.9,-2666.2,-2767.6,-2865.4,-2965.1,-3077.3,-3194.9,-3302.3,-3407.9,-3518.2,-3628.9,-3746.5,-3867.7,-3987.7,-4122.9,-4264.7,-4393.4,-4523.2,-4653.8,-4773.8,-4897.5,-5010.6,-5087.1,-5137.6,-5134.1,-5024.9,-4821.3,-4528.9,-4121.9,-3624.2,-3060.4,-2413.7,-1716,-1026.7,-346.88,325.25,949.5,1506.7,2009.2,2448.6,2810.6,3110.8,3362,3555.9,3708.5,3847.3,3963.2,4051.9,4139.5,4222.9,4285,4348,4413.7,4437.8,4412.9,4365.9,4290.9,4175.8,4036.4,3888.6,3742.3,3603.9,3467.7,3339.4,3239.3,3164.1,3099.5,3056.5,3040,3032.5,3033.1,3047.1,3053.5,3042.3,3031.4,3022.6,2995.7,2942.1,2871.8,2795.4,2703.1,2584.9,2462.3,2342.9,2201,2046.2,1903.3,1752.4,1589.3,1444.2,1308.3,1159.7,1009.2,863.63,720.17,580.53,440.58,301.89,170.94,47.247,-68.405,-183.36,-303.98,-413.87,-509.77,-612.9,-729.46,-845.92,-942.96,-1024.5,-1121.3,-1224.2,-1308.4,-1401,-1502.3,-1582.1,-1672.9,-1783.6,-1869.3,-1959.6,-2084.7,-2190.7,-2274.2,-2379,-2488.3,-2587.7,-2694.7,-2802.2,-2905.3,-3016.9,-3135.9,-3253.3,-3365,-3480,-3601.6,-3709.5,-3813.9,-3942.4,-4069.7,-4187.3,-4325.6,-4460.4,-4573.7,-4702.3,-4832.1,-4936.9,-5046,-5152.1,-5225,-5267.3,-5255.8,-5164.3,-4985.9,-4688.2,-4275.5,-3782.3,-3183.5,-2487.6,-1766,-1025.8,-272.34,430.96,1082.9,1704.5,2252.2,2712.7,3106.7,3425.9,3688.4,3913.6,4075.8,4196.3,4319.7,4415.5,4473.2,4544,4627.6,4693.8,4747.3,4779,4774.4,4751,4705,4612.3,4485.2,4345.3,4198.2,4054.6,3922.4,3798.5,3685.3,3587.7,3513.9,3473.2,3446.9,3418.4,3407.8,3412.6,3407.1,3404.7,3406,3379.1,3340.9,3309.9,3250.9,3162.2,3070.3,2963.9,2846.5,2733.6,2606.6,2463.3,2320.9,2174.7,2031.1,1899.4,1755,1595.5,1451.9,1322.2,1184.1,1045.3,918.05,790.82,655.03,520.68,400.95,295.7,187.2,67.286,-46.118,-150.71,-260.81,-363.75,-458.73,-568.7,-670.41,-744.11,-828.91,-924.23,-1001.1,-1092,-1202.5,-1288.8,-1371.8,-1480.1,-1580.7,-1673.1,-1781.5,-1885.9,-1978.1,-2082.3,-2200.9,-2316.7,-2421,-2528,-2654.2,-2778.1,-2882,-2988.2,-3099.3,-3204,-3317.3,-3430.9,-3528,-3638,-3765,-3872.8,-3967.7,-4072.1,-4180.2,-4291.8,-4403.4,-4502.5,-4601.6,-4712.8,-4826.4,-4940.9,-5058,-5174.1,-5288,-5390.5,-5479.8,-5568.9,-5641.9,-5664.1,-5625.8,-5508.9,-5277.9,-4929.8,-4474.5,-3908.6,-3257,-2559.1,-1823.3,-1060.4,-307.27,402.9,1053.2,1640.7,2162.3,2606,2977.1,3287,3526.4,3701.7,3836.6,3936,4010.8,4079.6,4136.7,4179.3,4218.5,4256.2,4284.5,4286.6,4254.6,4198.7,4112.7,3989.7,3850.4,3705.9,3556.8,3410.2,3270.6,3159.3,3086.4,3025.4,2982,2974.4,2974.5,2977,2994,3002.6,3012.1,3038.1,3043.3,3025.5,3006.9,2960.1,2884.3,2807.1,2714.8,2606.2,2496.7,2372.5,2234.9,2093.9,1938.9,1786.4,1652.5,1510.1,1355.5,1216.6,1086.4,949.1,814.83,687.54,558.1,426.09,299.22,185.55,78.134,-40.782,-160.25,-259.32,-355.39,-462.08,-561.66,-654.04,-748.02,-836.98,-925.81,-1017.5,-1104.9,-1195.8,-1290,-1380.6,-1477.7,-1574.8,-1661.8,-1755.2,-1852,-1938.7,-2031,-2132.5,-2229.1,-2326.7,-2432.2,-2543.4,-2656.2,-2761,-2858.7,-2958.1,-3061.1,-3174.7,-3299.9,-3420.2,-3532.7,-3649.8,-3773.1,-3897.7,-4022.4,-4142.6,-4255.5,-4369.8,-4490.1,-4604.9,-4707.2,-4796.9,-4861.6,-4888.4,-4860.9,-4743.2,-4511.1,-4169.3,-3722.4,-3173,-2534.3,-1834.4,-1107.8,-369.08,366.53,1058.9,1687.3,2252,2737.4,3143.8,3487.7,3760.4,3957,4100,4204.5,4274.3,4319.1,4348.2,4366.7,4383.2,4404.4,4418.1,4410.9,4384.1,4327.1,4230.2,4105.6,3955.3,3780.9,3604.9,3434.2,3275.2,3144.7,3031.7,2937.7,2883.1,2846.1,2818.2,2824.6,2844.6,2857.8,2880.5,2896.7,2895.3,2901.5,2898.8,2857.9,2796.3,2723.4,2627.8,2516.6,2398.4,2268.3,2123.5,1967.8,1806.3,1643.9,1483.9,1324.1,1161.3,1003.2,854.13,701.63,548.37,410.73,276.82,134.25,0.69438,-126.08,-263.28,-391.24,-503.09,-628.81,-755,-847.57,-934.52,-1046.3,-1157.8,-1252.4,-1344.4,-1437,-1526.2,-1617.7,-1716.2,-1815.2,-1904.8,-1994.1,-2096.2,-2195.2,-2285.2,-2389.8,-2500,-2592.4,-2692,-2811.2,-2921.6,-3029.8,-3153.1,-3271.4,-3381.4,-3491.1,-3588.7,-3692.7,-3820.8,-3934.5,-4025.8,-4135.2,-4254.3,-4358.1,-4463.9,-4576.4,-4687.1,-4811.5,-4945.1,-5062.2,-5172.5,-5293.6,-5411.6,-5517.1,-5620.6,-5725.9,-5824.9,-5901.9,-5942,-5927.9,-5821.9,-5598.1,-5265.9,-4817,-4234.2,-3546,-2782.7,-1957.4,-1112.6,-282.18,527.31,1282.3,1955.8,2559.1,3081.9,3505.1,3846.3,4120.1,4327.7,4489.5,4623.3,4721.2,4786.1,4844.9,4910.9,4977.4,5046.5,5118.3,5177.7,5214.7,5223.7,5193.6,5121.1,5005.9,4853.6,4683.4,4505.3,4328,4174.3,4041.1,3914.2,3812.1,3741.8,3685.7,3652.1,3648.4,3650.8,3656.5,3682.3,3706.8,3702.6,3685.3,3664.5,3618.3,3544.2,3455.1,3348.1,3228.5,3101.6,2954.6,2790.7,2627.2,2464.9,2301.7,2137.9,1972.5,1811.5,1656.5,1500.3,1343.3,1193.7,1055.5,921.3,787.05,657.48,524.82,388,267.32,157.02,39.036,-73.978,-176.28,-275.09,-368.87,-467.88,-569.3,-654.83,-741.36,-840.95,-933.8,-1020.8,-1110.6,-1206.1,-1316.4,-1419.8,-1500.2,-1594.3,-1712.5,-1829,-1945.7,-2060.1,-2163.3,-2279,-2412.5,-2534.9,-2648.4,-2771.7,-2895.6,-3013.5,-3137.6,-3262.3,-3377.7,-3496.2,-3614.6,-3717.7,-3824.1,-3943.5,-4049.6,-4146.7,-4256.5,-4370.1,-4480.3,-4585.2,-4681.5,-4787,-4904.8,-5014,-5121.2,-5234.8,-5343.5,-5457.8,-5579.7,-5687.5,-5786.6,-5889.3,-5986.1,-6070.8,-6122.4,-6110.8,-6029.6,-5852.1,-5534.6,-5082.4,-4514.9,-3832.9,-3059.8,-2233.3,-1380.9,-528.75,304.45,1093.5,1801.3,2414.2,2937,3375.9,3738.8,4016.9,4212.2,4360.4,4465.9,4516.1,4548.4,4587.6,4619,4656.1,4710.9,4755,4778.9,4793.9,4782.4,4723.7,4630.3,4514,4366.3,4196.4,4025.7,3854.2,3694.1,3568.4,3465.8,3385.9,3345.4,3321.7,3309.1,3338,3386.2,3417.8,3443,3462.9,3470.9,3471.4,3450.4,3398.6,3321.5,3223.7,3124.1,3014.4,2861.7,2690.4,2531.4,2365.4,2197,2036.1,1855.1,1666.4,1507.6,1363.3,1212.5,1060.6,905.06,748.08,603.6,468.41,330.47,191.63,60.761,-61.832,-182.39,-298.98,-405.03,-505.45,-610.64,-718.46,-816.12,-903.48,-995.88,-1092.4,-1181.4,-1275,-1381.2,-1480.2,-1571.6,-1671.9,-1773.3,-1876,-1994.9,-2114.3,-2220.1,-2331.2,-2448.8,-2559.7,-2674.5,-2794.1,-2904.1,-3019.7,-3155.4,-3284.6,-3396.8,-3518.2,-3647,-3761.8,-3874.4,-3996,-4112.4,-4229.2,-4359.6,-4484.8,-4599.2,-4731,-4879.9,-5016.7,-5140.4,-5263.7,-5381,-5494,-5608,-5705.4,-5767.2,-5780.6,-5711.7,-5528.6,-5224.9,-4788.1,-4209.7,-3519.2,-2748.4,-1911.5,-1038.3,-166.43,682.94,1482.2,2196.1,2816.7,3352.8,3794,4132.1,4393.1,4599.4,4742.6,4833.2,4903.1,4952,4979.5,5016.7,5065.9,5103.7,5139.5,5180.9,5202.3,5189.6,5141.2,5046.4,4910.5,4751.3,4570.6,4375.5,4189.3,4024.6,3882.7,3768.5,3682.3,3619.8,3579.5,3560.8,3564.1,3582.5,3601.2,3619.4,3639.4,3642.9,3621,3587.8,3543.8,3480.5,3399,3291.7,3156,3013.7,2871.9,2711.5,2536.4,2364.4,2188.3,2007.3,1836.2,1665,1488.7,1328.2,1174.4,1010.6,859.23,718.23,559.39,401.7,268.06,137.05,2.7679,-115.49,-224.91,-342.08,-452.93,-543.4,-635.99,-748.24,-858.03,-948.62,-1032.4,-1121.4,-1217.9,-1314.4,-1400.9,-1484.8,-1576.6,-1677.9,-1791.4,-1904.6,-2005.2,-2114.2,-2238,-2348,-2449,-2570.2,-2702.3,-2828.5,-2956.3,-3089.1,-3222.1,-3352.3,-3474.4,-3594.5,-3723.8,-3851.5,-3968.6,-4088.5,-4211.9,-4323.9,-4428.7,-4539.4,-4652.5,-4758.7,-4862,-4967.2,-5069.2,-5171.7,-5286.5,-5406.2,-5523.3,-5647.1,-5772.2,-5888.6,-6004.7,-6119.4,-6229.7,-6345.7,-6451.8,-6518.6,-6540.9,-6497.9,-6347.3,-6066.5,-5637.5,-5050.4,-4333.4,-3511.7,-2594.7,-1632.5,-684.99,242.38,1143.4,1961.6,2665.3,3275.6,3790.6,4191.7,4501.4,4745.6,4921.6,5040.6,5128.9,5191.8,5229,5262.6,5319.8,5390.6,5448.8,5507.3,5580.2,5637.4,5659.1,5650.2,5591.9,5474.7,5327,5163.1,4980.6,4804.5,4657.4,4523.7,4398.2,4302.5,4235.2,4184.7,4161.4,4159.6,4161.5,4171.9,4184.5,4184.4,4185.1,4181.1,4146.8,4097.1,4040,3950.7,3835.1,3708.3,3559.6,3397.6,3237.9,3072.8,2901.2,2722.4,2531,2344.1,2171.4,2003.2,1841.6,1682.2,1521.3,1375.6,1236.2,1089.9,954.78,822.64,682.2,559.94,446.83,325.21,222.81,125.92,5.8827,-100.57,-188.66,-294.35,-397.41,-485.51,-585.54,-685.6,-774.99,-877.46,-986.6,-1086.2,-1187.9,-1291.6,-1391.5,-1500.3,-1619,-1736.2,-1853.6,-1976.4,-2105.5,-2233.9,-2349.1,-2462.4,-2598,-2744.1,-2878.2,-3008.3,-3144.4,-3284.4,-3428.6,-3565.9,-3690.1,-3815.4,-3942.8,-4060.9,-4172,-4284.3,-4407.2,-4536.2,-4647.7,-4746.4,-4852.7,-4956.4,-5057.9,-5169.3,-5268.3,-5359.4,-5480.4,-5607,-5707.1,-5818.1,-5952.6,-6078.1,-6202.8,-6334.5,-6442.8,-6538.7,-6654.3,-6755.2,-6803.2,-6810.3,-6746.8,-6543.8,-6190.5,-5693.4,-5036.3,-4251.7,-3386.5,-2441.2,-1443.3,-458.58,480.57,1353.5,2134.7,2817.4,3392.2,3851.5,4214.7,4493.8,4686.6,4811.7,4899.2,4964.2,5006.7,5035,5067.4,5105.1,5143.8,5194.9,5257.8,5313.6,5348.3,5348.4,5306,5223,5091.3,4908.3,4702.2,4508.3,4339.6,4185.2,4037.1,3912.2,3829,3783.2,3759.6,3748,3747.7,3764.3,3797.3,3832.5,3848.3,3842.3,3829.3,3799.6,3737.5,3653.7,3549.1,3418.4,3278.1,3126.1,2952.5,2776.3,2596.8,2402.2,2216.2,2042.8,1860.6,1679.1,1504.8,1330.5,1168.8,1016.5,859.44,712.79,575.67,425.94,277.41,146.47,20.461,-100.54,-212.6,-328.93,-447.43,-557.5,-663.61,-763.48,-855.89,-957.84,-1068,-1168.9,-1267.8,-1375,-1482.3,-1586.3,-1688.9,-1794.3,-1912.1,-2033.7,-2145.3,-2256.9,-2376,-2498.9,-2625.4,-2749.4,-2872.5,-3004.5,-3134.5,-3259,-3391.5,-3520.9,-3638.9,-3761.5,-3888.1,-4013.8,-4145,-4275.4,-4400.9,-4525.9,-4648,-4776.1,-4918.6,-5060.8,-5198.8,-5342.4,-5486,-5624,-5757.1,-5881.7,-6003.4,-6127.5,-6239.2,-6313.7,-6329.7,-6275.3,-6122.7,-5814.1,-5330.8,-4713.7,-3977.8,-3122.9,-2198.1,-1250.6,-295.85,627.58,1471.9,2222.9,2883.6,3453,3921.1,4279.7,4547.3,4748,4885.5,4968.3,5021.3,5058,5077.2,5089.5,5113,5144.5,5176.5,5225.3,5281,5291.4,5245.3,5175.2,5074.9,4924,4744.6,4558.2,4368,4191,4037,3900.8,3790,3706,3639.1,3597.2,3583.5,3587.1,3600.6,3608.2,3607.7,3615.6,3609.9,3567.5,3510.6,3436.7,3335.2,3229.6,3104.9,2942.8,2782,2622.3,2434.4,2245.4,2065.6,1873.7,1683.6,1498.9,1307.2,1124.7,955.41,786.88,623.58,464.15,307.62,161.56,17.087,-128.33,-267.11,-409.31,-551.24,-674.7,-791.63,-915.04,-1030.5,-1134.7,-1243.6,-1360.3,-1472.2,-1571.3,-1666.6,-1770,-1877.7,-1979.2,-2078.1,-2186.4,-2302.1,-2413.2,-2520.5,-2633.3,-2751.8,-2870.5,-2984.6,-3096.2,-3215.1,-3342.7,-3468.3,-3586,-3699,-3816.2,-3944.9,-4075.8,-4199.1,-4323.9,-4453.6,-4577.3,-4702.6,-4838.3,-4969.2,-5098.5,-5246.9,-5401.8,-5546.2,-5686.5,-5817.1,-5939.9,-6072.6,-6196.7,-6292.8,-6381.9,-6453.3,-6450.1,-6332.6,-6081.9,-5691.6,-5159.2,-4474.5,-3662.3,-2778,-1841.4,-874.4,59.656,926.09,1724.7,2438.7,3052.4,3558.5,3955.5,4267.1,4506.7,4669.5,4779,4852.8,4888.5,4914.7,4947.5,4973.5,5017.2,5086.9,5138.9,5171.9,5205.4,5210.4,5163.2,5061,4907.9,4732.9,4550.4,4353.4,4159.3,3984,3833.7,3724.4,3644.3,3576.8,3540.9,3531,3518.2,3515.9,3533.5,3541.8,3534.3,3526.4,3504.8,3449.9,3372.4,3286.1,3186.4,3067.1,2924.7,2761,2591.2,2418.1,2236.1,2064.2,1901.2,1714.4,1523.2,1360.4,1191.8,1004.1,838.73,693.5,540.84,387.45,237.94,94.479,-33.833,-163.81,-303.79,-431.21,-548.49,-671.49,-787.78,-893.72,-1004.6,-1114.8,-1212.8,-1307.6,-1407.5,-1506.8,-1605.3,-1707.6,-1810.3,-1908.2,-2005.3,-2106.8,-2209.7,-2309.9,-2414.9,-2528.4,-2639.8,-2753.8,-2880.7,-3002.3,-3114,-3241.9,-3384.3,-3527.8,-3675.2,-3816,-3951.5,-4108.8,-4278.8,-4436.1,-4586.5,-4730.5,-4861,-4988.5,-5115.1,-5227.6,-5314.9,-5363.2,-5347.6,-5228.1,-4965.9,-4553.9,-4009.5,-3346.9,-2575,-1721.5,-838.57,33.49,873.88,1647.9,2335.2,2946.9,3466.8,3871,4181.8,4423.7,4602.4,4727.9,4804.3,4849.8,4893.3,4927.5,4951,4990.6,5038.8,5076.7,5104.7,5105.3,5067.9,4999.2,4882.8,4714.3,4512.2,4282.6,4047.6,3833,3631.8,3455,3325.3,3225.3,3142.5,3088.5,3055.6,3035.2,3034,3047.6,3058.6,3053.1,3034.4,3008.8,2967.2,2908.9,2836.1,2727.6,2585.8,2446.1,2305.7,2146.4,1982.6,1811.4,1622.2,1442.9,1277.6,1100.3,928.17,772.85,608.08,442.98,296.34,150.77,4.8686,-136,-279.6,-410.34,-529.38,-662.23,-794.01,-912.23,-1028,-1125.1,-1213.8,-1327.5,-1435.8,-1519.2,-1613.1,-1708.6,-1789.2,-1884.2,-1980.9,-2057.5,-2153.3,-2266.3,-2356,-2451.2,-2568.6,-2666.1,-2755.8,-2862.5,-2955.9,-3049.1,-3165.4,-3265.7,-3360.2,-3485.9,-3603.3,-3705.6,-3831.1,-3949,-4043.4,-4157.3,-4287,-4411.1,-4539.5,-4668.8,-4793.2,-4916.5,-5042.3,-5183.1,-5324,-5434.7,-5536.5,-5651.3,-5755.9,-5837.7,-5883.5,-5857,-5740.2,-5516.2,-5151.5,-4645.9,-4021.3,-3275.5,-2419.9,-1512.9,-614.64,255.5,1088.5,1846.6,2498.7,3053.3,3514.8,3871.5,4142.6,4356.5,4510.1,4610.2,4689.5,4758.8,4817,4882.5,4960.2,5035.4,5112,5198.5,5276.2,5322.5,5328.5,5281.2,5174.3,5025,4843.7,4630.6,4413.5,4213.5,4016.7,3837.4,3706.7,3603.7,3508.9,3443.2,3404.5,3375.3,3359.1,3352.7,3341.5,3319.7,3293.1,3264.9,3213.7,3131.8,3044.1,2937.1,2783.9,2619,2463.5,2299.4,2135.8,1969.5,1784.6,1608.6,1450,1283.1,1117.4,961.94,807.93,661.85,514.81,361.05,226.04,102.71,-32.493,-164.86,-288.4,-409.95,-522.83,-640.38,-765.59,-868.48,-958.03,-1060.2,-1156.9,-1244.3,-1344.4,-1448,-1542.7,-1636.5,-1730.4,-1828.1,-1932.5,-2029.5,-2124.3,-2235,-2351.1,-2463.6,-2576.7,-2686.2,-2799.1,-2916.2,-3013.7,-3105.5,-3224.1,-3348,-3459.7,-3576.8,-3693,-3801.2,-3918,-4036.9,-4142,-4240.1,-4340.6,-4451.8,-4577.6,-4702.6,-4817.7,-4936.2,-5065,-5189.6,-5300.1,-5412.4,-5533.3,-5640.8,-5732.9,-5825.1,-5900.6,-5933.2,-5903.9,-5776.7,-5528.4,-5157.3,-4642.9,-3985.5,-3237.5,-2430.4,-1567.4,-688.18,156.63,949.38,1674.8,2310.2,2847.1,3284.5,3626.5,3889,4084.9,4223.4,4323.8,4402.7,4463.9,4515.4,4570.6,4630.9,4694.7,4764.7,4829.7,4871.5,4885.4,4859.2,4771.9,4629.2,4452.7,4250.4,4032.9,3818.6,3617.1,3440.1,3301.1,3192.9,3102.4,3035.6,3002.7,2997.3,3001.1,3001.9,3005.1,3011.6,2998.9,2962.9,2923.8,2870,2781.2,2677,2566.2,2433.6,2290.2,2146,1990.5,1833.6,1680.1,1514.1,1348.8,1194.1,1030.4,866.87,717.85,561.15,402.06,264.41,127.5,-24.251,-168.78,-296.93,-419.32,-544.34,-666.37,-772.48,-877.71,-995,-1098,-1190.3,-1299.5,-1401.7,-1486.5,-1584.7,-1685.5,-1773.9,-1868.5,-1962.1,-2051,-2151.9,-2248.7,-2333,-2424.6,-2520.9,-2616.6,-2710.1,-2791.5,-2882,-2994.5,-3104.9,-3219,-3344.7,-3459.2,-3574.5,-3706.9,-3839.2,-3975.4,-4121.9,-4264.5,-4403.6,-4527.6,-4626.4,-4731.4,-4850.9,-4961.2,-5056.1,-5116.4,-5118,-5055,-4891.5,-4589.8,-4155.4,-3598.2,-2937.4,-2198.9,-1389.6,-551.87,257.08,1036.5,1766,2391.4,2924.5,3388.5,3758.1,4034.1,4240.4,4387.7,4500.4,4588.3,4639.2,4678.2,4734.7,4792.5,4836.9,4876.3,4911.3,4928,4912.5,4860.5,4762.5,4605.4,4406.5,4190.6,3959,3734,3541.1,3353.3,3166.2,3035.1,2965.1,2909.1,2861.4,2835.1,2823.5,2825.9,2838,2840.4,2824.6,2790.6,2738.7,2677.1,2606,2514.8,2403.3,2276.6,2138,1991.2,1830.4,1654,1480.8,1318.3,1152.7,984.65,822.67,663.37,507.34,355.14,199.06,46.617,-88.075,-213.42,-341.36,-468.57,-592.06,-712.94,-832.06,-949.76,-1059.3,-1158.2,-1256.1,-1351.7,-1438.3,-1528.3,-1623.2,-1707.2,-1790.1,-1884.9,-1973,-2049.1,-2131.8,-2225.4,-2325.2,-2425,-2518.3,-2613.2,-2714.3,-2819.9,-2937.4,-3052,-3146.6,-3246,-3354.7,-3452.1,-3555.9,-3667.1,-3761.2,-3855.8,-3963.9,-4072.1,-4182,-4282.1,-4372.1,-4480.1,-4590.2,-4688.6,-4802.8,-4919.3,-5024.7,-5146.1,-5267.4,-5373.2,-5487.9,-5595,-5675.4,-5756.2,-5838.2,-5890.9,-5892.4,-5822.5,-5654,-5347.7,-4891.3,-4311.9,-3614.2,-2806.7,-1934.1,-1019.3,-92.515,783.72,1590.7,2328,2966.5,3498.5,3933.5,4277.2,4546.7,4749.1,4894.6,5007.5,5092.8,5165.9,5258,5357.1,5445,5537,5640.1,5746.4,5838,5892.3,5907.3,5869.1,5754.9,5597.3,5431.4,5239.1,5025.1,4825.2,4638.5,4465.4,4337.4,4249.7,4167.8,4104.1,4079.4,4063.2,4039.9,4035.4,4042.5,4029.6,4000.4,3968.8,3925.4,3853,3753.9,3643.2,3513.2,3358.4,3204.1,3051.2,2882.5,2707.7,2526,2339.4,2179.3,2031.4,1863.4,1698.6,1550.1,1403,1262.5,1124.5,985.35,863.42,749.9,625.2,499.09,382.02,275.31,175.03,72.792,-24.378,-111.91,-199.26,-282.64,-362.07,-453.32,-549.5,-629.01,-701.19,-792.57,-892.89,-974.74,-1057.4,-1163,-1266.3,-1364.7,-1475.9,-1577.7,-1670.9,-1786,-1905.6,-2011.2,-2120.3,-2234.3,-2354.5,-2487.8,-2609.9,-2712.1,-2824.4,-2953.2,-3075.7,-3186.7,-3300.8,-3421.4,-3533.3,-3635.1,-3742.1,-3849.2,-3942.7,-4034.7,-4134.6,-4229.1,-4317,-4408.6,-4497.8,-4584.5,-4676.5,-4755,-4818.2,-4902.4,-5003.5,-5092.6,-5185.8,-5295.9,-5405.8,-5511.2,-5612,-5716.5,-5836.5,-5944,-6028.2,-6126.1,-6233.1,-6314.1,-6357.5,-6334.1,-6206.5,-5960.4,-5573,-5035.1,-4369.5,-3594.4,-2735,-1833.7,-919.08,-19.034,828.52,1600.3,2285.9,2873.6,3356.7,3739,4030.2,4243.8,4398.1,4504.6,4570.7,4618.3,4665.2,4714.6,4774.3,4843.1,4914.6,4993.2,5062.5,5106.5,5131.2,5108.9,5022.1,4906.5,4759.8,4573,4393,4218.7,4034.4,3890.7,3786.7,3687.4,3626.5,3602.9,3577.6,3572.7,3586.9,3584.6,3583.7,3589.5,3571,3530,3471.1,3393.3,3312.1,3214.7,3086.2,2947.5,2801.2,2636.1,2464.1,2289.5,2108.2,1926.1,1746.5,1575.7,1415.8,1248.8,1078.8,929.18,788.2,636.28,484.51,343.89,214.87,94.847,-31.641,-165.22,-280.79,-377.87,-478.83,-582.22,-676.45,-766.65,-863.13,-964.04,-1053.2,-1129.6,-1217,-1316.8,-1411.3,-1503.2,-1591.8,-1675.6,-1775.3,-1889.2,-1998.1,-2110.3,-2226.4,-2334.8,-2447.9,-2568.9,-2687.3,-2808.3,-2927.9,-3038.4,-3149.8,-3262.2,-3374.9,-3495.7,-3611.1,-3714.2,-3825.3,-3940.8,-4046,-4156.7,-4281.3,-4401.7,-4517.5,-4642.6,-4768.9,-4884.3,-5000.2,-5123.8,-5238.1,-5335.2,-5431.3,-5529.4,-5597.7,-5602.9,-5535,-5373.3,-5076.2,-4635,-4071.3,-3385.2,-2586.8,-1731.4,-865.07,0.58889,843.88,1625.9,2322.9,2927.2,3428.1,3820.5,4121.6,4353,4521.7,4635.8,4714,4773.7,4822.1,4860.1,4891.4,4927.3,4976.2,5039.7,5109.3,5165.3,5195,5194.6,5150.6,5057.2,4927.5,4765.4,4573.5,4376,4191.6,4023.1,3878.3,3757.4,3651.9,3567.2,3508.4,3472.4,3461.1,3460.3,3446.8,3429.5,3422.4,3406.5,3370.1,3319.9,3247.5,3149.3,3040.3,2916.7,2762.6,2595.2,2438.4,2276.4,2092.1,1902.5,1721.5,1546.5,1380.6,1220.6,1060.9,906.07,747.75,579.75,427.14,300.41,174.02,37.891,-90.292,-202.82,-316.06,-439.74,-553.29,-646.36,-741.86,-844.54,-938.35,-1031.6,-1131.4,-1221.2,-1301.7,-1391.1,-1487,-1577.6,-1671.1,-1776.3,-1878.9,-1969.9,-2066,-2173.5,-2279.7,-2387.9,-2506.4,-2623.5,-2735.4,-2853.1,-2974.4,-3096.5,-3225.8,-3352.3,-3469.8,-3594.3,-3717.4,-3820.3,-3934,-4077.9,-4207.8,-4309.2,-4417.1,-4530.3,-4633.2,-4740.7,-4857.8,-4977.8,-5100.7,-5219,-5338.1,-5477.5,-5624.5,-5756.5,-5879.9,-6000.1,-6111.6,-6215.9,-6311,-6382.6,-6402.8,-6339.2,-6169.8,-5865.9,-5405.3,-4807.8,-4094.6,-3272.7,-2386.8,-1482.1,-564.59,330.16,1146.8,1880.1,2529.9,3073.6,3516.1,3866.3,4117.3,4293.8,4424.9,4507.6,4555.3,4594.8,4626.1,4652.7,4691.1,4740.1,4795.9,4858.5,4910.9,4936.5,4936.7,4910,4839.5,4712.4,4546.3,4367.3,4182.2,4001.6,3840.7,3694.7,3565.8,3467.9,3395.4,3346.6,3322.8,3304.3,3298.7,3320.1,3325.4,3300.1,3290.1,3281.6,3234,3169.8,3095.3,2988.1,2867.8,2740.8,2581.1,2404.1,2234.8,2063.2,1885.5,1705.2,1521.6,1346.8,1183.1,1015.4,844.06,681.2,531.54,388.8,243.43,104.16,-20.218,-149.49,-287.89,-409.59,-518.56,-636.29,-750.93,-849.55,-943.63,-1034.6,-1115.6,-1198.9,-1293.4,-1383.7,-1465,-1554.8,-1648.6,-1729.8,-1813,-1908.3,-1999.8,-2093.1,-2199.6,-2299.7,-2386.3,-2479.2,-2586.7,-2697.2,-2796.6,-2891.8,-3004.6,-3125.7,-3233.9,-3341.4,-3456.6,-3570.3,-3691.9,-3825.1,-3952.3,-4072.8,-4200.6,-4337.1,-4473.8,-4609.8,-4746.7,-4873.1,-4988.5,-5113.2,-5238.3,-5340.8,-5429.7,-5492.8,-5487,-5394.1,-5191.8,-4841.1,-4341.5,-3717.6,-2986.8,-2172.5,-1306.2,-422.56,448.2,1275.8,2020,2666.3,3227.2,3689.8,4044.6,4312.1,4497.9,4608.9,4671.4,4695.3,4692.7,4685.6,4669.6,4645.2,4633.4,4633.7,4636.8,4634.8,4598.6,4512.6,4399.3,4266.1,4091.9,3882.4,3673.5,3483,3303.4,3137.4,3005.2,2911.7,2838.5,2777.9,2738.3,2722.5,2729.3,2747.5,2755.8,2756.2,2756.1,2741.5,2711,2663.5,2584.6,2484.5,2365.2,2215.4,2062.7,1911,1730.7,1546.1,1364.7,1154.8,953.93,785.41,599.21,405.53,240.82,75.397,-99.997,-263.05,-422.21,-579.74,-724.5,-861.92,-995.97,-1125.7,-1249.8,-1365.3,-1482.6,-1605.1,-1713.8,-1810.9,-1918.1,-2029.3,-2129.8,-2231.1,-2336.5,-2430,-2519.5,-2617.8,-2709.6,-2794.6,-2891.8,-2994.4,-3094.2,-3195.8,-3293.3,-3393.8,-3506,-3612.3,-3719.6,-3848.3,-3973.8,-4084.8,-4209.4,-4347.9,-4484.3,-4618.4,-4753.9,-4906.6,-5074.8,-5226.7,-5363.7,-5505.8,-5642.3,-5769.3,-5889.9,-5990.9,-6069.4,-6100.9,-6025.5,-5824.2,-5497.7,-5014.3,-4374.8,-3620.7,-2772.3,-1857.3,-922.49,8.13,905.54,1720,2437,3062.3,3575.7,3972,4279.9,4512.4,4675.5,4793.7,4870.6,4908.1,4946.4,4998.7,5035.8,5070,5127,5186.3,5232.1,5267.2,5276.4,5245.1,5169.5,5047.4,4886.8,4694,4479.9,4271.4,4078.2,3897.8,3734.5,3586.2,3468.9,3398.6,3345,3301.2,3293.4,3290.7,3270.4,3265.8,3256.5,3204.9,3144.4,3083.5,2985.7,2862.2,2730,2575.6,2412,2248.7,2063.1,1866.7,1682.5,1491.9,1291,1096.9,902.3,712.89,542.37,367.26,188.22,37.703,-102.42,-259.67,-415.74,-560.27,-699.95,-832.23,-957.16,-1077.4,-1197.2,-1314.1,-1415.4,-1516.1,-1633.3,-1743.5,-1844.8,-1955.4,-2056.4,-2146.2,-2251.1,-2361,-2462.6,-2561.3,-2654.4,-2752,-2862.7,-2968.8,-3072.6,-3189.4,-3305.4,-3410,-3520.7,-3647.9,-3778.7,-3902.5,-4027.5,-4159.2,-4291,-4423.4,-4564.4,-4719.1,-4883.4,-5042.4,-5193,-5343.4,-5488.5,-5629.6,-5774.4,-5910.3,-6028.6,-6128.6,-6191.3,-6187.5,-6077.7,-5826.7,-5436.6,-4907.5,-4225.6,-3416.8,-2527.3,-1591.6,-648.07,277.17,1157.7,1943.4,2616.5,3195,3673.9,4045.8,4328.6,4541.6,4691.8,4785.9,4846.7,4898.1,4938,4968.9,5011,5066.5,5131.4,5201.1,5253.7,5280.3,5276.1,5216.1,5100.2,4944.4,4749.1,4533.7,4317,4095.5,3887.7,3702.3,3526,3388,3300.1,3220.6,3155.6,3128.7,3107.2,3082.8,3070.3,3041.9,2991.2,2944.4,2885.7,2795.1,2687.4,2565.8,2425.5,2275.5,2110.5,1925.6,1743.2,1570.7,1385.9,1191.9,1011.8,839.41,657.66,473.84,299.76,131.81,-38.151,-203.58,-350.18,-487.83,-634.33,-778.65,-911.59,-1042.5,-1166.8,-1281.8,-1398.9,-1512.6,-1617.4,-1724.8,-1831.1,-1925.6,-2017.6,-2113.1,-2206,-2298.5,-2395.2,-2491.6,-2581,-2665.1,-2759.5,-2871.9,-2978.6,-3067.9,-3170.6,-3294.1,-3416.2,-3546.2,-3692,-3837.9,-3990.1,-4145,-4286.6,-4442.5,-4618.6,-4774,-4910.2,-5052.3,-5194.5,-5330.8,-5460.1,-5581.8,-5689.1,-5739.8,-5693.4,-5539,-5254.8,-4820.6,-4244.1,-3549.7,-2769.9,-1922.4,-1030.3,-153.17,672.45,1446.2,2144.7,2746.7,3257.2,3677.7,4008.6,4249,4406.3,4513,4584.2,4614.4,4621.9,4624.2,4623.7,4635.4,4660.6,4669,4640.1,4582.7,4505.6,4389.4,4211.1,3987.8,3747.6,3493.3,3241.9,3029,2853,2696.9,2578.6,2504,2446.5,2408.7,2398.8,2391.5,2390.1,2415.1,2434.4,2416.6,2373.9,2315.5,2239.3,2140,2012.9,1871,1720.1,1552.5,1377.1,1193.7,991.63,790.82,610.49,433.56,245.36,59.386,-111.48,-283.43,-469.12,-644.04,-798.86,-957.5,-1118.7,-1268.6,-1412.1,-1550.6,-1690.5,-1834.1,-1959.9,-2071.4,-2192,-2308,-2407.2,-2504.9,-2603.9,-2703.3,-2803.6,-2895.6,-2986.8,-3087,-3184,-3278.7,-3383.7,-3498.1,-3619,-3738.3,-3856.6,-3995,-4149.6,-4297.4,-4444.7,-4594.4,-4734.1,-4869.6,-4998.4,-5110.6,-5226.6,-5347.9,-5425.6,-5419.6,-5311.6,-5080.9,-4716.9,-4215.8,-3574.7,-2819.4,-1995.7,-1133.4,-264.88,564.28,1334.4,2036.6,2643.3,3154.7,3591.8,3936.8,4179.8,4360.7,4507.2,4620.9,4707,4770.1,4821.9,4878.7,4941.3,5004.4,5061.6,5107.1,5133.2,5106.2,5005.6,4862.4,4681.3,4440.1,4177.4,3936.4,3700.5,3472.7,3286.1,3135.1,3004.1,2911.2,2861.1,2824.7,2795.9,2789.8,2788,2773.5,2763.3,2745.1,2690.9,2616.7,2529.2,2412,2281.3,2145.6,1985,1809.6,1638.4,1462.3,1279.2,1104.2,936.53,757.16,568.34,401.97,257.22,100.63,-61.835,-212.92,-365.85,-515.57,-650.23,-785.68,-923.6,-1053.6,-1178.8,-1296.7,-1412.1,-1532.5,-1637.9,-1728.4,-1831,-1931,-2005.4,-2080.5,-2173.5,-2262.3,-2341.6,-2425.2,-2509.5,-2592.5,-2685,-2781.8,-2876.4,-2978.8,-3087.9,-3203.9,-3335,-3461.9,-3577.4,-3712.5,-3865.4,-4012.5,-4157.4,-4296.6,-4422.5,-4544.8,-4660.3,-4769,-4876.6,-4954.8,-4976,-4933.5,-4795.6,-4519.3,-4092,-3530.7,-2857.4,-2081.2,-1234.1,-374.43,469.12,1278,2015.1,2665.2,3222.5,3686.2,4081.4,4401.1,4628.1,4805.3,4956,5068.8,5172.2,5272.7,5355.7,5458.2,5580.3,5679.4,5770.4,5853.2,5888.1,5878.9,5811.5,5650.3,5438.6,5221.6,4981.5,4725.7,4480.6,4249.1,4043.5,3873.1,3738.4,3650.1,3599.8,3565.2,3542.7,3527.7,3513,3498.2,3472.5,3429.1,3373.3,3306.1,3228,3126.8,2990.3,2845.2,2705.9,2547.2,2383.6,2239.4,2078.9,1895.7,1735.7,1593.2,1440.6,1292.7,1154.6,1014.5,873.8,727.78,585.87,468.79,355.84,226.45,101.96,-10.147,-120.36,-228.95,-338.61,-440.57,-529.81,-631.84,-743.15,-834.61,-920.32,-1012.8,-1098.4,-1191.5,-1294.6,-1380.4,-1460.1,-1556.2,-1652.4,-1744.8,-1845.3,-1942.7,-2031.8,-2128.3,-2233.8,-2337.8,-2438,-2541.5,-2659.5,-2787.9,-2906.5,-3019.2,-3147.8,-3283,-3409.5,-3542.3,-3686.2,-3826,-3963.2,-4102.4,-4237.2,-4365.3,-4483.2,-4594.3,-4710.3,-4818.9,-4902.1,-4967.1,-5004.5,-4976.9,-4860.9,-4638.6,-4287.9,-3813.4,-3236.1,-2571.7,-1852.2,-1118,-383.91,329.35,977.65,1553.5,2072.2,2507.4,2842.5,3110.9,3331.2,3503.3,3644.2,3761.1,3853.1,3936.4,4026.9,4129.7,4233.9,4323.2,4400.4,4458,4469.5,4434,4349.8,4201.2,4008.2,3795.5,3563.7,3335.1,3136.8,2969.7,2833.9,2724.1,2638,2590.4,2570,2551.1,2541.2,2544.1,2540.4,2525.2,2498.6,2453.4,2392.8,2318.6,2227.2,2122.6,2006.1,1876.6,1741.1,1601,1451.7,1302.4,1160.3,1014.4,866.1,731.93,600.8,450.31,298.85,169.27,43.425,-90.572,-219.3,-344.32,-468.48,-579.92,-683.03,-789.34,-893.84,-992.66,-1090.6,-1190,-1286.1,-1372,-1453.9,-1533.5,-1603.5,-1682.8,-1781.3,-1862.7,-1924.2,-2001.8,-2086.8,-2162.7,-2246.2,-2330.1,-2404.7,-2489,-2583.7,-2676.2,-2767.8,-2857.4,-2946.5,-3036.4,-3119.1,-3206.7,-3311,-3416.4,-3522.8,-3638.1,-3746.6,-3853.1,-3976.3,-4100.9,-4212.7,-4319.8,-4424.4,-4529,-4628.9,-4705.5,-4771.8,-4852.2,-4920.7,-4935.4,-4880.4,-4740.1,-4504.3,-4174.3,-3739.2,-3202.5,-2597.4,-1945.7,-1264.9,-584.1,78.879,701.94,1255.8,1739.4,2155.7,2501.7,2797.4,3047.6,3240.7,3404.7,3561.2,3693.8,3812.5,3939.5,4066,4191.2,4320.4,4432.7,4509.5,4549.5,4546.9,4492.3,4387.8,4245.6,4078.7,3900.3,3723.7,3558.6,3419.8,3316.2,3228.6,3146.2,3095.3,3086,3090.6,3095,3104.1,3113.6,3116.1,3111.1,3097.8,3071.7,3028.7,2968.3,2893.6,2808.8,2713.8,2610,2509,2411.8,2302.4,2185.9,2079.5,1971.9,1853.3,1743.1,1645.3,1541.1,1432.3,1334,1236.8,1130.5,1032.7,945.77,852.05,764.03,690.88,608.58,521.73,451.33,384.11,312.79,244.81,177.34,116.95,61.851,-3.331,-68.369,-128.12,-196.99,-266.82,-333.59,-410.03,-488.38,-563.71,-641.98,-717.32,-796.3,-885.4,-971.05,-1059.5,-1157.3,-1243.9,-1326.3,-1423.1,-1515.4,-1598.2,-1689.7,-1784.6,-1881.6,-1988.3,-2087.6,-2175.2,-2266.7,-2357.4,-2447.8,-2547.7,-2636.8,-2709.5,-2793.8,-2888.4,-2978.7,-3072.4,-3158.9,-3228.3,-3308.1,-3399.6,-3473.1,-3539.4,-3621.2,-3709.2,-3791.4,-3860.1,-3919.6,-3994.7,-4077.5,-4142.3,-4210.5,-4292,-4363.2,-4439.7,-4527.8,-4593.9,-4651.8,-4726.7,-4798.8,-4876.1,-4977.3,-5074.4,-5162.3,-5266.7,-5381.7,-5492.7,-5597.9,-5698.1,-5801.1,-5897.2,-5971.8,-6044.3,-6114.7,-6142.3,-6108.3,-5995.4,-5769.7,-5437.3,-5010.8,-4474,-3851.5,-3187.2,-2477.9,-1733,-1004.3,-323.04,307.54,881.03,1384.5,1812.9,2177.6,2486.1,2739.2,2951.6,3133.9,3293.6,3447.7,3594.8,3739.4,3906.3,4077,4221.8,4362.2,4504,4621,4703.1,4736,4709.1,4639,4534.7,4402.6,4261.2,4121.4,3995.4,3890.5,3797.8,3725.9,3686.8,3668.6,3663.4,3664.4,3662.2,3671.2,3689.5,3681.8,3645.7,3608,3566.3,3507.9,3434.4,3346.6,3246,3134,3006.5,2871.6,2740.5,2605.7,2465.7,2331.2,2201.6,2077,1957.5,1827.5,1691.7,1572,1457.5,1336.1,1222.3,1114.4,1002,893.43,790.3,685.83,580.36,475.23,373.26,275.35,180.59,91.556,2.0783,-91.68,-180.79,-272.12,-372.33,-463.27,-547.41,-648.08,-758.34,-861.59,-960.28,-1056.3,-1153.7,-1261.6,-1375.6,-1490.5,-1608.3,-1719.5,-1823.9,-1940.1,-2059.5,-2161.7,-2264.8,-2381.7,-2494.5,-2599,-2702.7,-2806.2,-2911.2,-3009,-3099.8,-3199.9,-3300.8,-3393.6,-3492.9,-3593.6,-3691.9,-3806.3,-3924.2,-4032.5,-4155.3,-4289,-4410.1,-4530.1,-4648.4,-4743.9,-4834.7,-4945.5,-5056.7,-5152.3,-5244.8,-5325,-5358.4,-5320,-5191,-4959.1,-4627,-4194.2,-3666.9,-3069.6,-2410,-1698.9,-983.3,-293.63,369.26,987.78,1542.5,2022.2,2418.2,2752.1,3042.9,3271.4,3447.3,3602.9,3729.6,3829.3,3937.4,4053.7,4164.2,4280.1,4396.7,4496.1,4575,4621,4621.6,4578.5,4484.9,4344.8,4191.4,4039.8,3883.3,3730.3,3592.6,3478.5,3399,3343.6,3299.8,3280.3,3277.6,3272.5,3280,3293.8,3278.3,3249.5,3229.9,3192,3130.9,3064.7,2980.4,2877.5,2770.7,2647.6,2508.9,2374.4,2234.7,2080,1930,1797,1667.7,1525.9,1377.5,1242.6,1120.4,992.44,850.65,703.44,575.08,473.69,363.85,233.54,124.1,41.144,-48.927,-140.11,-220.79,-308,-391.73,-461.92,-548.36,-643.59,-714.79,-788.76,-883.18,-967.03,-1052,-1158.7,-1253.9,-1332.4,-1424.7,-1523.6,-1618.2,-1723.3,-1837.3,-1941.4,-2032.3,-2129.3,-2246.6,-2362.9,-2463,-2570.3,-2692.7,-2807.1,-2905.9,-3002.9,-3107.8,-3217.1,-3323.1,-3430.2,-3540.6,-3637.9,-3722,-3818.5,-3923.3,-4008.8,-4091.2,-4194.6,-4285.1,-4348.4,-4429.8,-4531.6,-4617.3,-4696.9,-4785.2,-4876,-4980.4,-5094,-5199.1,-5311.8,-5437.8,-5554.7,-5658.3,-5753.3,-5846.7,-5945.9,-6026.7,-6066,-6062.9,-5981.5,-5779.2,-5458.3,-5022.8,-4471.5,-3823.5,-3090.8,-2287.4,-1452,-616.53,193.61,943.83,1622.6,2236.3,2770.5,3210.7,3569.2,3857.6,4082.7,4267.5,4428.3,4567.5,4703.5,4845.9,4978.1,5103.8,5241.9,5395.5,5559.8,5706.6,5803.1,5858.3,5872.1,5823.2,5732.5,5617.4,5463.5,5293.6,5134.4,4977.5,4837.9,4729.9,4633.7,4555.8,4512.2,4484.7,4466.4,4462,4457.1,4449.3,4438.8,4402.6,4341.1,4277.2,4205.6,4115.2,4010.6,3893.2,3768.6,3639.2,3491.4,3328.8,3163.8,2995.7,2836.2,2686.9,2525.8,2366.1,2225.5,2078.9,1925.5,1787.4,1653.4,1518.3,1390.5,1263.3,1143.2,1036.4,930,826.82,731.26,633.38,534.89,433.19,329.3,246.44,173.14,77.651,-21.242,-106.31,-200.33,-303.92,-401.24,-499.53,-603.12,-705.71,-809.83,-919.36,-1032.2,-1145.1,-1261.1,-1388.6,-1517.1,-1630.5,-1747,-1885.6,-2021.9,-2138.3,-2256.4,-2385.8,-2513.9,-2639.8,-2762.5,-2877.8,-2996.7,-3125.3,-3250.7,-3367.4,-3481.6,-3596.2,-3708.2,-3806.4,-3892.4,-3990.8,-4099.5,-4192.3,-4278,-4370.5,-4454.6,-4540.9,-4645.3,-4740.8,-4824.7,-4925.7,-5031.6,-5133.3,-5252.1,-5376.3,-5490.1,-5610.4,-5733.2,-5845,-5957.5,-6072.7,-6182.1,-6280.7,-6351.1,-6382.8,-6360.1,-6231.1,-5966.2,-5580.7,-5069.3,-4427.5,-3692.1,-2887.7,-2022.8,-1137.4,-270.98,560.64,1327.4,2000.2,2583.2,3081.1,3486.6,3804.6,4041,4206.6,4335.4,4442.6,4516.8,4578.2,4653.2,4730.5,4813.8,4916.7,5011.1,5085.8,5159.4,5201,5179,5116.4,5017,4872.6,4713.5,4549.8,4374.4,4219.4,4099.1,3990.4,3902.6,3853.7,3826.3,3808.9,3805.9,3811.5,3821.3,3830.3,3824.9,3806.9,3783.8,3741.8,3673,3584.5,3476.2,3362.1,3250.5,3109.3,2942.6,2793.5,2638.7,2455.9,2290.5,2138.9,1965.3,1799.1,1651.7,1494.9,1338.9,1192,1043.1,900.18,759.17,614.87,483.3,361.08,241.41,132.13,25.968,-79.242,-177.81,-277.09,-370.83,-455.83,-548.09,-639.93,-726.32,-825.98,-924.86,-1006.2,-1097.5,-1207.9,-1311.8,-1406.8,-1509.3,-1623.5,-1736.8,-1840.6,-1949.9,-2077.3,-2209.4,-2338.8,-2466.9,-2585.9,-2701.2,-2825.1,-2949.3,-3069.9,-3190,-3297.2,-3399.3,-3519.4,-3639.9,-3744.2,-3853.4,-3962,-4053.9,-4155.2,-4269.9,-4367.7,-4466.2,-4593.2,-4724.8,-4844.8,-4965.2,-5082.1,-5190.6,-5299.5,-5411.9,-5522.8,-5624.1,-5713.6,-5786.2,-5800.9,-5717.6,-5540.3,-5254.1,-4820.3,-4252.5,-3578.3,-2802.6,-1961.4,-1095.1,-218.06,633.2,1425.5,2154.4,2797.3,3336.8,3783.2,4132.3,4393.4,4595.6,4735,4818.2,4882,4924,4941.9,4977.7,5035.4,5089.5,5151.1,5216.9,5263.4,5297.5,5304.6,5249.1,5146.6,5013.1,4836.2,4643.7,4463.6,4280.9,4108.2,3970.1,3857.7,3772.8,3714.6,3662.8,3633.2,3639.4,3648.8,3648.2,3652.1,3659.7,3661.1,3635.4,3571.2,3492.4,3407.2,3297.1,3167.8,3027.3,2864.5,2687.5,2514,2338.3,2151.2,1960.8,1773.5,1589.1,1417.6,1260.7,1094.4,915.93,751,595.97,440.92,305.15,181.62,45.185,-86.511,-199.97,-315.29,-428.72,-531.06,-642.02,-756.37,-847.5,-929.83,-1030,-1136.6,-1228.4,-1311.1,-1406.9,-1517.7,-1620.6,-1712.5,-1814.4,-1924.7,-2031.8,-2145.8,-2266.6,-2380.2,-2495.4,-2619.2,-2737.3,-2856.1,-2991.6,-3125.1,-3243.5,-3368.2,-3502.7,-3625,-3738.5,-3863,-3993.9,-4111.4,-4214.6,-4321.6,-4440.9,-4559.8,-4667.2,-4766,-4863.7,-4961.9,-5059.7,-5160.2,-5270.7,-5392.1,-5511.9,-5622,-5741.4,-5883.1,-6015.1,-6120,-6229.7,-6348.2,-6445.2,-6523.8,-6584.5,-6583.9,-6488.6,-6281.7,-5923.4,-5392.8,-4727.3,-3958.5,-3079.6,-2117.5,-1139.3,-173.11,766.68,1634.4,2408.7,3092.1,3664,4123.1,4492.1,4768.4,4957.5,5099.8,5215.9,5295.7,5344.5,5393.3,5457.9,5530.9,5617.4,5718.9,5818.6,5919.9,6020.4,6082.3,6093.6,6062.2,5969.1,5818.9,5642.1,5443.2,5232.9,5030.9,4837.7,4665.9,4535.9,4434.7,4342.9,4267.3,4219.2,4191.6,4171.6,4163.9,4162.7,4140.8,4107.3,4084.3,4037.3,3943.1,3840.6,3736.6,3600.3,3444.4,3287.9,3113.8,2922.7,2727.2,2524.1,2332.2,2162.5,1982.7,1794,1626,1463.5,1296.4,1136.6,971.28,809.52,673.62,537.72,394.76,270.7,150.98,26.564,-81.652,-187.2,-303.93,-409.23,-502.3,-602.7,-702.07,-790.35,-886.14,-993.99,-1091.6,-1184.1,-1287.9,-1387,-1482.3,-1592.5,-1700.2,-1799.7,-1907.9,-2019.2,-2141.9,-2279.9,-2398.3,-2511.6,-2653.1,-2787.9,-2908.7,-3047,-3177,-3291.7,-3427.7,-3567.7,-3692.4,-3825.8,-3957.7,-4073.1,-4197.5,-4331,-4450.3,-4561,-4673.9,-4784.9,-4890.9,-4993.7,-5095.2,-5191.9,-5280,-5371.5,-5474,-5574.1,-5668.3,-5773.3,-5896.1,-6024.3,-6146,-6268.4,-6401.4,-6527.7,-6633.7,-6745.5,-6869.9,-6963.9,-7002.7,-6977.8,-6849.9,-6588.7,-6182.6,-5601.5,-4850.2,-3984,-3029.5,-2005.6,-964.82,60.337,1044.5,1939.7,2730.7,3419.4,3990.1,4451.6,4817.6,5085.3,5279.7,5421.4,5512.6,5581.4,5636.9,5669.1,5711.5,5779,5846.8,5923.2,6016.7,6106,6178.7,6218.5,6214.5,6169,6060.2,5886.5,5692.6,5496.9,5292.8,5086.9,4890.5,4725,4595,4479.8,4386.8,4326.5,4284.2,4264,4265.6,4265.6,4262.5,4254.2,4233.7,4213.2,4171.4,4086.1,3991.2,3888.8,3749.7,3595.8,3435.9,3256.8,3081.9,2903.6,2698,2503.9,2329.9,2135.7,1940.2,1770.6,1602.4,1427.1,1260,1110,974.16,831.52,685.68,559.76,436.31,306.84,194.75,83.617,-38.092,-141.77,-239.78,-349.42,-441.89,-524.6,-623.26,-716.98,-803.12,-898.93,-988.34,-1072.1,-1170.2,-1274.2,-1382.9,-1498,-1599.9,-1699,-1813.7,-1925,-2035.4,-2163.8,-2291.1,-2409.5,-2535.4,-2663.7,-2789.3,-2914,-3035.1,-3166.6,-3306.6,-3428.6,-3549.6,-3694.7,-3833.3,-3948.7,-4066,-4187.9,-4301.3,-4411.2,-4519.7,-4624,-4727.8,-4829.7,-4924.4,-5020.5,-5129.2,-5240.7,-5338,-5430.1,-5538.8,-5660.2,-5780.8,-5907.7,-6044.7,-6177.2,-6300.6,-6421.4,-6538.8,-6652.7,-6760.5,-6849.4,-6903.8,-6893,-6772.3,-6510.3,-6086.2,-5494.5,-4759.3,-3899.7,-2932.7,-1915.5,-899.21,105.86,1070.9,1948.2,2725.1,3403.2,3964.8,4400.2,4732.5,4986.3,5166.2,5286.8,5366.6,5406,5424.8,5452.4,5476.7,5491.2,5519.4,5564.5,5619.4,5670.7,5688.7,5673.6,5629.6,5529.4,5383,5215.1,5008.6,4782.2,4586.8,4417.7,4257.8,4121.4,4018.4,3949.1,3903.4,3867.4,3850.7,3858.5,3869.9,3871.9,3870.8,3866.3,3837,3771.9,3700.6,3632.6,3526.5,3385.4,3252.7,3109.3,2928.3,2746.6,2576.3,2386.9,2194.5,2020.7,1834.5,1636.9,1469.6,1322.8,1161.5,994.17,837.07,688.58,547.07,408.27,270.95,137.23,2.9855,-125.44,-242.35,-360.61,-474.34,-570.07,-669.14,-774.56,-859.23,-943.96,-1055.7,-1160.1,-1243.6,-1336.4,-1435.7,-1532.4,-1638.8,-1741,-1835.1,-1948.3,-2071.2,-2181.8,-2295.9,-2420,-2543.5,-2669.4,-2797.7,-2927.8,-3064.4,-3200,-3329.9,-3454.8,-3571.1,-3689.9,-3814.4,-3927.9,-4038.7,-4157.1,-4262.5,-4359.5,-4473.2,-4592.2,-4706.1,-4823.5,-4938.9,-5058.1,-5194.2,-5328.5,-5457.1,-5600.1,-5739.2,-5855.6,-5972.5,-6096.5,-6210.8,-6309.1,-6378.3,-6383.9,-6281.4,-6041.8,-5657.6,-5108.1,-4389,-3552.1,-2633.4,-1645.2,-641.78,334.75,1277.9,2146.7,2901.5,3547.8,4090.5,4526.5,4858.7,5099,5272.8,5387.9,5445.8,5475.5,5490.4,5491.1,5503.7,5530.1,5554.8,5600,5662.5,5701.8,5716.8,5711.7,5651.9,5528.4,5370,5189.5,4986.9,4776.6,4576.3,4389.4,4216.5,4071.4,3967.1,3898.8,3854.1,3826.9,3814.8,3813.2,3817.5,3819.4,3809.3,3790.3,3768.5,3727.4,3650.4,3548.7,3436.3,3310.7,3164.8,2996.4,2817.5,2643.3,2463.7,2265.5,2066.8,1883.3,1703.1,1519.5,1340.9,1170.5,1006.9,848.2,693.71,550.17,418.23,277.89,122.7,-18.597,-132.22,-240.85,-354.64,-466.7,-581.45,-693.67,-790.49,-885.31,-990.86,-1093.3,-1184.4,-1270.2,-1356.6,-1450.6,-1550,-1645.1,-1741.9,-1848.8,-1954.4,-2054.4,-2164.2,-2284.3,-2398.5,-2509.3,-2630.2,-2761.1,-2894.3,-3021.9,-3142.4,-3264.1,-3389.6,-3520.9,-3664.3,-3802,-3921.5,-4046.1,-4178.9,-4302.8,-4423.7,-4540.4,-4649.1,-4769.7,-4891,-4992,-5095.2,-5201.9,-5290.1,-5383.9,-5498.8,-5612,-5726.9,-5856.8,-5989,-6117.5,-6247,-6376.7,-6505,-6630.8,-6750.5,-6858.6,-6942.1,-6984.9,-6961,-6822.1,-6524.1,-6061.1,-5438.3,-4648.5,-3719.4,-2721.1,-1691.9,-639.22,396.7,1364,2243.6,3028.6,3701.7,4242.9,4657.2,4981.8,5239,5422.9,5541.1,5617.4,5668.7,5709.6,5754.2,5813.5,5886.7,5966.3,6062.8,6177.5,6278.1,6354.2,6407.5,6403.6,6332.5,6220.3,6058.5,5848,5634.2,5428.2,5217.6,5023.7,4859.5,4713.4,4599.9,4538.5,4503,4459.3,4424.3,4421.1,4425.3,4414.4,4394,4361.8,4314.7,4255.9,4175,4068.2,3944.9,3807.9,3661.4,3504.4,3334.4,3161.6,2981.5,2786.4,2596.9,2416.9,2238.6,2077.3,1921.7,1752.8,1595,1447.4,1289.1,1149,1030.8,898.52,768.5,658.68,539.87,416.31,311.61,211.09,108.8,13.457,-88.399,-197.13,-294.05,-384.35,-480.27,-576.68,-670.49,-764.82,-861.66,-962.04,-1061.9,-1161.2,-1266.3,-1369.9,-1467.8,-1579.1,-1704,-1817.9,-1924.3,-2042.9,-2170.9,-2301.9,-2431.5,-2552,-2671.2,-2798.4,-2925.8,-3052.8,-3181.3,-3304.4,-3429.1,-3561.5,-3688.8,-3809.8,-3933.2,-4054.8,-4169.2,-4276.5,-4380.4,-4488.7,-4596.5,-4693.5,-4790.5,-4892.5,-4981,-5063.7,-5166.2,-5271.1,-5355.7,-5443.4,-5549.3,-5657.9,-5767.3,-5879.7,-5992.3,-6114,-6241.7,-6362.2,-6479.8,-6594.4,-6694.4,-6777.1,-6837.5,-6856.6,-6786.2,-6564.7,-6177.7,-5636.7,-4928,-4070.3,-3124.2,-2118.7,-1075.8,-44.261,941.42,1855.9,2674.9,3395.2,4002.1,4481.5,4864.7,5162.2,5354.6,5481.7,5583.1,5638.1,5661.7,5688.7,5705.4,5724.6,5780.1,5844.7,5892.3,5937.3,5973.4,5979.6,5947.6,5870.6,5741.3,5562.9,5366.7,5177.8,4977,4768.8,4599.2,4465.9,4348.6,4271,4237.5,4217.7,4203,4195.8,4195.8,4209.5,4225.4,4211.4,4166.7,4122.4,4073.4,3984.5,3866.3,3746.9,3613.3,3455.4,3283.9,3101.9,2921.1,2745.2,2556.9,2362.7,2178.2,1997.1,1820.1,1649.2,1482.7,1329.9,1182.4,1028.4,881.48,741.07,601.94,473.2,339.07,197.42,81.935,-14.866,-121.9,-233.83,-347.63,-461.31,-562.06,-658.29,-758.3,-856.1,-950.97,-1034.7,-1113.7,-1214.7,-1323.7,-1418.7,-1523.2,-1643.8,-1757,-1864.9,-1975.7,-2087.5,-2207.4,-2331.2,-2449.2,-2574.9,-2712.3,-2840.4,-2961.7,-3100.7,-3247.7,-3376.8,-3500.4,-3634.2,-3763.6,-3888.1,-4017.7,-4136.4,-4243.3,-4358.3,-4471,-4571.8,-4680.2,-4795.1,-4898,-4990.2,-5076.1,-5165.8,-5276.9,-5398.9,-5513.8,-5632.4,-5759.4,-5885.4,-6016,-6152.8,-6281.7,-6400.3,-6515.9,-6629.7,-6736.2,-6816,-6833.7,-6748.7,-6529.7,-6158.7,-5619.1,-4906,-4053.6,-3111.4,-2103.6,-1057.3,-29.14,944.48,1858.3,2681.9,3379,3961.5,4446.5,4828.1,5117.5,5330.6,5473.4,5570.7,5639.6,5679.6,5711.8,5751.9,5798.6,5865.7,5945.3,6015.1,6091,6165.6,6196.7,6187.8,6149.8,6055.8,5900.4,5706,5497.3,5290.1,5074,4857.5,4679.6,4540.5,4425,4346.5,4294.9,4247.4,4216.7,4212.3,4218,4216.7,4202.6,4181.3,4151.1,4102.2,4035.9,3949.3,3839.3,3715.8,3570.3,3395.8,3220.4,3053.9,2878.3,2691,2497.6,2309.1,2137.1,1965.1,1784.4,1614.6,1455.9,1296.6,1142.2,993.91,853.57,728.18,605.65,476.76,354.06,239.72,123.17,5.0968,-109.03,-217.55,-318.06,-412.76,-511.47,-615.4,-711.83,-800.4,-897.92,-1002.8,-1101.3,-1202.2,-1307.6,-1398.2,-1489.4,-1607.6,-1725.1,-1823.9,-1938,-2068.1,-2186.1,-2305.3,-2432.7,-2549.5,-2671.7,-2813.9,-2948.1,-3065.6,-3187.7,-3319,-3452.6,-3582.4,-3704.5,-3827.2,-3957.7,-4091.1,-4222.6,-4345.9,-4458,-4571.5,-4692.8,-4808.9,-4915.6,-5018.9,-5116.4,-5207.2,-5299.5,-5396,-5489.8,-5585,-5697.5,-5822.2,-5935.8,-6046.9,-6180.8,-6319.5,-6439,-6559.4,-6691,-6806.8,-6906.7,-7009,-7089.1,-7107.8,-7046.9,-6862.4,-6496.1,-5950.1,-5256.1,-4417.4,-3454.4,-2427.4,-1379.6,-327.75,696.25,1643.6,2486,3222.9,3847.7,4355.3,4763.1,5075.1,5290.9,5445.6,5556.5,5614.7,5652.2,5695,5730.5,5771.4,5830.6,5895.4,5973.4,6057.4,6111.9,6139.2,6149.3,6120.9,6040.2,5900.2,5706.2,5498.5,5295.8,5084.4,4880.9,4707.1,4554.9,4433.9,4359.8,4309,4265.4,4247.3,4247.1,4240.5,4234.9,4235.1,4221.6,4189.4,4141.8,4072,3983.2,3879.8,3750.7,3595.8,3434.1,3273.4,3100.1,2910.1,2722,2542.1,2358.9,2173.5,1987.7,1803.2,1638.6,1492.8,1339.7,1180.8,1029.5,885.16,755.47,635.35,501.46,366.6,249.21,128.14,2.7409,-101.31,-194.45,-294.2,-392.18,-488.85,-588.43,-685.7,-785.27,-884.14,-973.04,-1070,-1183,-1285.4,-1375.2,-1475.7,-1587.3,-1704,-1823,-1934.6,-2047.6,-2175.7,-2301.5,-2414,-2533.8,-2665.6,-2794.4,-2924.1,-3058.7,-3182.7,-3299.7,-3428.9,-3562.9,-3690.1,-3818.6,-3943.1,-4060.1,-4183.9,-4300.1,-4396.7,-4505.5,-4627.9,-4736.2,-4841.5,-4944.2,-5028.3,-5122,-5236.3,-5339.9,-5439.4,-5553.5,-5669,-5782.2,-5902.5,-6032.5,-6167.2,-6290.1,-6406.2,-6535.6,-6660,-6763.4,-6858.1,-6910.3,-6869.7,-6732,-6464.9,-6005.6,-5366.1,-4594.7,-3700.6,-2706.9,-1668.4,-625.72,387.56,1340.7,2215.6,2990.2,3648.6,4196.1,4640.8,4990.5,5252.4,5434.1,5559.8,5649,5703.6,5739.2,5771.8,5804,5853,5926.4,6006.6,6090.2,6168.5,6213.8,6226.6,6210.7,6139.2,6005.2,5834.9,5644.4,5435.5,5219.7,5017.1,4836.6,4678.4,4549.7,4452.1,4382.9,4342.1,4312.9,4280.4,4258.3,4246.7,4230.2,4209.8,4177.8,4127.1,4066.4,3978.3,3854.3,3730,3602.4,3443.3,3275.3,3108.5,2923.9,2740.8,2571.6,2393.5,2212.6,2042.1,1872.7,1709.8,1556.6,1400.9,1250.5,1112,975.85,843.81,711.98,573.85,445.73,330.44,214.42,103.83,-0.74351,-108.59,-214.81,-322.88,-433.53,-530.76,-626.98,-737.73,-837.92,-922.39,-1017.7,-1122.2,-1222,-1320.1,-1419.8,-1528.2,-1644.3,-1752.2,-1859.7,-1981.1,-2096.8,-2203.8,-2330,-2461.2,-2572.9,-2692.1,-2830.9,-2960.5,-3083.1,-3220.3,-3362.9,-3493.3,-3612.8,-3733.9,-3857.6,-3974.7,-4096.9,-4230,-4349,-4460,-4589.8,-4714.1,-4813.8,-4917.2,-5024.5,-5115.5,-5208.2,-5313,-5407.3,-5497.2,-5606.2,-5718.2,-5819.8,-5935.5,-6067.8,-6195.3,-6319.1,-6441.9,-6565.3,-6699.8,-6825.2,-6923.2,-7010.7,-7072,-7055.6,-6930.4,-6665.5,-6229.1,-5623.5,-4870.2,-3991,-3010.9,-1972.8,-934.8,73.176,1038.4,1923.4,2700.7,3366.4,3918.7,4374,4739.1,5002.4,5195.5,5351.7,5454.4,5516.2,5576.1,5630.8,5676,5727.6,5788.7,5871.2,5976.3,6063.8,6118.6,6158.7,6159.5,6085.5,5956.6,5794.7,5589.8,5359.9,5141.5,4935.8,4741.7,4582.7,4459.5,4355.1,4278.1,4240,4223.8,4209.2,4199.2,4200.7,4198.5,4180.8,4154.2,4115,4057.6,3988.8,3893.8,3759.4,3613.4,3471.7,3317.2,3144,2962.7,2785.6,2612,2425.8,2236.2,2063.3,1895.6,1729.8,1575.9,1421.1,1266.1,1122.4,976.07,829.68,700.85,579.69,462.05,351.1,231.85,109.61,1.845,-102.36,-209.63,-310.1,-407.45,-505.83,-598.24,-686.63,-779.79,-877.84,-975.89,-1071.8,-1169.5,-1279.3,-1397.3,-1504.6,-1611.4,-1735.7,-1850.1,-1947.3,-2069.3,-2210.1,-2337.1,-2464.6,-2596.4,-2719,-2845.9,-2973.9,-3096.1,-3230.6,-3368.1,-3493.2,-3620.2,-3746.8,-3866.7,-3988.6,-4102.9,-4206,-4310.1,-4412.9,-4517.1,-4624.5,-4725.3,-4830.3,-4942.5,-5041.9,-5137.1,-5247.2,-5367,-5489.7,-5615.9,-5748.1,-5881.4,-6006.5,-6135,-6268.5,-6382.3,-6482.6,-6581.4,-6651.8,-6663.6,-6575.4,-6340.5,-5953.3,-5406.9,-4693.5,-3854.4,-2924.3,-1927.3,-924.26,55.274,1005.3,1874.5,2635.8,3307.8,3878.5,4332.3,4686.5,4953.1,5140.6,5275.1,5376.7,5445.7,5489.5,5527.9,5563.5,5599.3,5655,5719.9,5775.1,5841.5,5910.2,5926.3,5879.9,5795,5666.2,5482,5258.8,5029,4812.5,4614.9,4444.8,4300.9,4179.6,4096.1,4042.5,3992.6,3961.4,3956.6,3946.3,3932.5,3933.2,3923.7,3886.8,3836.2,3771.6,3683.8,3573.4,3442.8,3302.1,3156.9,2997.5,2827.4,2651.2,2454.8,2258.8,2094.3,1926.4,1736.1,1571.6,1429.7,1272.7,1123.9,992.03,848.32,706.35,577.7,444.38,316.98,204.14,89.843,-24.507,-135.31,-243.46,-338.71,-432.41,-538.99,-635.27,-717.91,-818.64,-926.75,-1011.4,-1095.1,-1201.1,-1307.1,-1406.6,-1511.1,-1611.2,-1711.8,-1826.3,-1938,-2045,-2160.5,-2273.9,-2392.5,-2533.5,-2673.6,-2801.4,-2936.3,-3073.5,-3200.1,-3321.5,-3445.7,-3578.4,-3714,-3845.2,-3976,-4099.1,-4209,-4326.2,-4450.8,-4558.4,-4653.8,-4758.2,-4869.4,-4975,-5072.4,-5166.8,-5266,-5373.4,-5484.4,-5596,-5714.8,-5843.5,-5971.7,-6098,-6230.3,-6361.2,-6480.1,-6595,-6711,-6816,-6895.7,-6923.4,-6851.1,-6645.5,-6292.5,-5767.2,-5067.9,-4239.6,-3315.6,-2312,-1277.8,-265.56,707.19,1617.7,2428.9,3131.1,3734.2,4237,4636.8,4938.6,5157.5,5321.7,5443.4,5516.4,5566,5624.5,5683.9,5747.6,5834.2,5925.9,6014.4,6117.3,6213.3,6271.4,6284.8,6235.4,6121.2,5966.9,5777.7,5562.9,5348.8,5141.1,4944.4,4771.7,4626,4517,4441.1,4374.4,4324.6,4303.1,4290.4,4286.2,4290.5,4266.2,4211.8,4166.1,4122.2,4048.4,3948.3,3829.9,3689.4,3540.6,3389.6,3221.6,3044.6,2871.5,2688.4,2503.1,2336.4,2171.8,2001.8,1842.3,1688.6,1538.2,1393.8,1244.3,1101.7,974.42,841.76,711.85,592.73,464.52,345.48,248.8,138.91,19.26,-84.574,-189.38,-296.89,-394.94,-500.29,-609.55,-707.02,-810.93,-922.96,-1021.4,-1118.5,-1229.3,-1339.3,-1446.1,-1558.2,-1674.8,-1797.1,-1916.1,-2026.8,-2152.5,-2287.3,-2401.6,-2519.1,-2658.1,-2785.2,-2905.5,-3038.8,-3163.2,-3290,-3439.9,-3575.8,-3691.8,-3821.8,-3954.2,-4082.2,-4219.4,-4338,-4432.7,-4543.7,-4665,-4771.4,-4874.6,-4975.6,-5071.5,-5180.5,-5294,-5392.1,-5488.3,-5595,-5705.1,-5820,-5947.9,-6089.1,-6230.1,-6356.3,-6474,-6594.4,-6714.8,-6831.4,-6937.7,-7018.5,-7049.4,-6988.5,-6803.1,-6481.3,-6000,-5349.3,-4554.4,-3639.8,-2642.5,-1616.8,-586.74,419.4,1348.5,2187.9,2938.6,3567.5,4071.4,4478.7,4798.4,5041.2,5216.7,5327.4,5404.6,5468.5,5510.2,5556.8,5632.5,5709.8,5791.6,5904.3,6020.3,6111.7,6184.8,6225.2,6205.7,6118.8,5975.6,5798.8,5597.6,5373.2,5147.8,4941.7,4762.3,4616.7,4497.6,4402.6,4343.5,4305.6,4269.2,4246,4238.7,4230.7,4214.4,4188.1,4144.2,4073.2,3981.3,3884.7,3772.6,3632.9,3488.5,3341.8,3174.5,3003.4,2832.5,2642.8,2458.7,2293.6,2116.7,1944.1,1802.2,1656,1501.8,1368,1229.9,1079.3,943.92,808.53,671.53,560.75,452.04,331.17,222.45,111.85,-3.9047,-102.02,-202.95,-311.45,-404.79,-503.11,-612.17,-710.82,-810.23,-909.91,-1002.9,-1109.9,-1220.3,-1321.9,-1438.2,-1552,-1644.8,-1753.1,-1876.8,-1988.1,-2104.1,-2231.5,-2354.3,-2482,-2613.7,-2735.1,-2859.2,-2993.2,-3122,-3246.5,-3376.7,-3507.3,-3627.3,-3740.1,-3861.9,-3990.6,-4107.8,-4217.5,-4330.8,-4440.3,-4545.4,-4650.9,-4750.5,-4847.4,-4949.3,-5055.6,-5165.4,-5273.4,-5384.4,-5514.4,-5649.3,-5772.5,-5897,-6022.1,-6142.9,-6267.7,-6382.3,-6486,-6596.5,-6685.8,-6720.9,-6685.3,-6526.6,-6212.3,-5751.5,-5132,-4364.6,-3495.4,-2541.9,-1536,-538.55,427.81,1346.1,2173.7,2893,3509.3,4025.3,4442.1,4753.2,4963.4,5109.1,5218.3,5284.8,5309.8,5327,5364.3,5414.2,5462.9,5514,5576,5646.9,5707.1,5726.5,5695.7,5624.3,5503.9,5320.9,5104.1,4897.5,4699.3,4497.4,4319.3,4184,4078.3,4004.3,3960.7,3920,3885,3874.8,3872.4,3871.1,3879.6,3863.8,3806.5,3747,3686,3592.3,3478.3,3352.1,3198.8,3033.4,2869.2,2695.6,2513.7,2326.4,2136.8,1956.2,1783.6,1619.4,1461.4,1291,1125.3,987.8,841.48,673.11,526.44,405.67,283.99,155.45,20.374,-107.63,-217.01,-328.19,-447.55,-552.73,-643.67,-741.35,-852.15,-962.59,-1059.6,-1151.1,-1250.5,-1354.1,-1458.9,-1570.8,-1682,-1781.8,-1885.9,-2007.1,-2126,-2234.9,-2352.7,-2478.6,-2601.7,-2729,-2859.5,-2986.8,-3116.3,-3246.4,-3373.1,-3501.3,-3627.3,-3749.8,-3876.1,-3996.9,-4105,-4217.2,-4336.1,-4444.2,-4544.1,-4654.7,-4776,-4896.9,-5012.7,-5125.6,-5248.3,-5387.8,-5530.5,-5671.2,-5815.4,-5951.1,-6072.5,-6191.8,-6305.4,-6406.6,-6496.8,-6551.5,-6526,-6385.8,-6105.4,-5666.5,-5068,-4327.1,-3461.6,-2494.3,-1488.2,-503.1,460.37,1388.8,2229.4,2964.4,3589.1,4093.4,4506.9,4840.7,5071.2,5230.3,5357.1,5442,5497.6,5545.6,5584.5,5638.8,5717.7,5792.1,5879.9,6000.2,6099.7,6150.4,6173.9,6145.4,6033.6,5872.1,5692.8,5485.3,5256.4,5034.1,4827.9,4648.4,4509.5,4392.1,4279.5,4197,4154.8,4127.9,4108,4094.9,4077.4,4057.3,4031.1,3980.4,3911,3835,3736.7,3609.6,3472.1,3329,3166.3,2983,2801.1,2627.3,2443.2,2254.7,2080.3,1908.6,1737.8,1580,1418.5,1252.2,1101.8,952.66,798.64,660.94,531.86,405.27,292.1,179.88,65.857,-43.749,-162.44,-278.38,-380.31,-489.69,-592.28,-676.18,-779.29,-893.75,-986.83,-1083,-1193.2,-1299,-1407.7,-1517.7,-1620.5,-1731.4,-1849.5,-1963,-2081.5,-2206.4,-2326.6,-2445,-2569.8,-2702.5,-2836.9,-2964.6,-3090.2,-3221.8,-3353.8,-3484,-3618.5,-3753.6,-3885.1,-4020.5,-4156.2,-4283.3,-4409.9,-4537.2,-4655.4,-4770.3,-4884.8,-4993.9,-5104.2,-5215.5,-5322.8,-5429.3,-5529,-5630.1,-5751.4,-5874.5,-5990,-6120.8,-6252,-6370.9,-6507.4,-6651.8,-6774.5,-6892.6,-7011,-7111.4,-7195.7,-7244.1,-7204.2,-7042.8,-6739.7,-6269,-5629.5,-4849.5,-3951.3,-2956.9,-1919.5,-884.2,134.57,1098,1957.8,2711.1,3358.7,3885,4300.1,4622.1,4864.1,5046.7,5176.3,5262.5,5335,5400.6,5460.6,5537.6,5628.4,5722.4,5837.3,5957.8,6045.3,6111.9,6162.6,6152.2,6070,5938.2,5748.4,5516.7,5292.8,5077.5,4861.2,4673.6,4521.5,4398.4,4315.1,4251.9,4194.1,4162.4,4146.8,4133.2,4130.3,4112.8,4070.7,4030.3,3970.9,3875.7,3773.9,3659.6,3520.7,3376,3218.8,3043.5,2868.9,2691.4,2506.5,2325.7,2149.7,1979.3,1816.4,1656.1,1498.8,1346.2,1202.4,1067.2,926.48,784.82,654.44,523.91,395.14,278.42,160.85,45.543,-54.283,-153.71,-263.09,-371.49,-469.72,-560.02,-656.47,-758.66,-849.8,-933.14,-1019.7,-1112.1,-1212.7,-1313.3,-1416.8,-1536.3,-1650.7,-1752.1,-1867,-1987.7,-2101.9,-2225.3,-2351,-2479.8,-2622.8,-2751.1,-2866.8,-3003.2,-3135.7,-3253.3,-3385.7,-3516.1,-3633,-3753.7,-3859.6,-3954.4,-4068.4,-4178.3,-4276.1,-4394.9,-4516.5,-4618.2,-4732.2,-4864.7,-4992.5,-5125.8,-5267.9,-5392.4,-5510,-5650.2,-5791,-5908.9,-6022.4,-6135,-6237.3,-6324.1,-6356.2,-6297.6,-6128.4,-5792.9,-5278.8,-4644.4,-3888.8,-2993.6,-2022,-1030.8,-45.493,883.83,1734.9,2512.1,3186.1,3737.6,4184.2,4535.1,4789.5,4965.3,5096.3,5201.2,5270.5,5306.2,5336.7,5380,5436.2,5503.1,5578.7,5661.6,5736.6,5777.6,5772.4,5712,5590.9,5427.5,5231.7,4999,4752.8,4523,4323.1,4163.4,4026.8,3897.2,3803.8,3748.3,3703.3,3686,3696.8,3699.6,3700.1,3696.5,3661.6,3618.4,3576.8,3499.4,3393.4,3278.5,3138.8,2982.8,2825.1,2652.7,2467.2,2280.8,2098,1923.6,1748.1,1565,1385.5,1218.5,1072.5,938.71,786.55,626.12,484.4,346.46,209.86,90.336,-31.253,-160.47,-273.15,-379.24,-498.99,-616.83,-717.78,-812.14,-911.06,-1012.7,-1112.7,-1213.7,-1320.1,-1428.7,-1529.2,-1625,-1737.1,-1859.5,-1968.3,-2076.4,-2196.3,-2311.7,-2430.3,-2559.4,-2677.4,-2794.9,-2929.3,-3058.3,-3184.6,-3329.8,-3473.3,-3598.5,-3719.1,-3847.2,-3986.6,-4121.3,-4235.7,-4354.3,-4485.5,-4601.6,-4707.7,-4823,-4936.9,-5047.1,-5157.5,-5257.6,-5355,-5466.3,-5589.4,-5718.7,-5847.2,-5970.1,-6097.8,-6232.9,-6367.9,-6501.2,-6622.3,-6727.6,-6829.3,-6916.5,-6961.3,-6942.1,-6819,-6548.8,-6117.9,-5524.1,-4771.9,-3886.7,-2908.4,-1883.7,-844.65,185.28,1157.2,2028.2,2793.9,3451.8,3997.1,4434,4762.4,5004.9,5196.6,5339.2,5440.7,5530.1
822.97,705.47,601.88,502.34,392.63,293.25,204.44,107.51,18.781,-59.547,-144.35,-217.5,-276.07,-343.48,-406.87,-461.4,-534.47,-612.97,-670.8,-725.34,-782.24,-827,-875.1,-936.96,-997.18,-1061.2,-1135.8,-1199.5,-1250.3,-1312.7,-1386,-1453.9,-1522.9,-1603.7,-1688.6,-1771.8,-1858.2,-1946,-2035.5,-2134.1,-2235.7,-2333.4,-2435.5,-2544.2,-2657.6,-2773.7,-2880.5,-2979.1,-3068.6,-3109.9,-3090.1,-3030.5,-2896.6,-2647.3,-2316.6,-1932.7,-1488.3,-1009.8,-526.42,-41.764,415.54,818.19,1177.4,1485.8,1719,1891.9,2020.6,2099.9,2143.7,2161.2,2143.7,2111.4,2079.3,2033.7,1994.3,1979.2,1956,1921.7,1901.5,1877.6,1841.3,1807.8,1759.5,1698.8,1654.5,1611,1571.4,1568.6,1570.4,1557.2,1575.5,1608.6,1610.8,1616.3,1645.9,1663.1,1657.9,1648.1,1641.7,1624.2,1576.3,1521.5,1480.5,1420.5,1330.6,1235.3,1137.4,1038.5,944.55,845.43,742.67,639.45,528.14,421.53,332.26,249.27,166.38,84.483,4.6176,-65.342,-127.01,-189.37,-247.95,-301.72,-361.27,-421.21,-472.95,-532.06,-599.11,-649.31,-692.78,-752.63,-811.08,-863.07,-929.91,-995.73,-1042,-1095.9,-1171.4,-1243.3,-1301,-1364.2,-1437,-1504,-1576.6,-1663.8,-1737.6,-1802.1,-1889.5,-1981.2,-2058.5,-2144.1,-2237.3,-2326.6,-2422.2,-2518.2,-2606.2,-2700.8,-2806.1,-2907.2,-2997.4,-3081.2,-3150.2,-3177,-3144.3,-3044.5,-2860.2,-2585.7,-2230.5,-1810.4,-1356.4,-884.1,-396.26,75.75,503.65,883.6,1209.3,1482.9,1700.7,1847.8,1945.7,2015.5,2042,2033.8,2011.1,1969.3,1919.2,1874.9,1831.9,1796,1770.6,1752.8,1744.7,1723.6,1676.5,1637.6,1614.3,1578.4,1540.7,1524.4,1516.2,1507.2,1512.3,1529.9,1545.4,1563,1585.3,1604.5,1628.7,1654.6,1660.3,1651.3,1633.1,1593.9,1551.6,1515.4,1459.2,1383.1,1299.5,1207.2,1113.5,1012.8,904.84,811.61,716.21,604.09,508.67,426.02,333.58,248.75,170.86,93.673,30.512,-34.98,-105.66,-156.01,-204.55,-268.04,-322.91,-372.55,-431.39,-484.85,-532.52,-588.39,-642.29,-687.38,-743.54,-811.62,-868.54,-919.89,-980.9,-1043,-1105,-1170.1,-1234.4,-1303.3,-1368.6,-1429,-1509.9,-1595.7,-1662.6,-1734.5,-1807.7,-1871,-1956.4,-2055.8,-2140.2,-2223.6,-2310.2,-2399.3,-2498.4,-2595.2,-2697.6,-2810,-2897.5,-2971,-3061.6,-3134,-3155.7,-3126.4,-3029.4,-2848.7,-2581.5,-2236.1,-1835.2,-1392,-924.18,-460.42,-6.6031,426.23,810.34,1143.6,1421.1,1627.5,1780.6,1889.4,1940.1,1956.2,1962.4,1945.1,1909,1867.3,1811.7,1761.3,1739.5,1718.9,1677.1,1632.2,1600.7,1578,1540.6,1482.1,1439,1419.4,1393.5,1376.2,1389.3,1409.6,1427.9,1452.5,1476.7,1503,1535.9,1565.5,1586,1597.9,1599.7,1582.5,1546.3,1512.3,1473.3,1408.2,1339.4,1267.6,1166.6,1064.5,976.04,876.13,783.09,698.43,588.11,477.07,390.41,304.43,220.41,147.86,77.645,12.159,-51.421,-116.75,-175.99,-234.33,-292.03,-342.22,-392.73,-442.23,-490.23,-545.37,-591.57,-626.69,-677.81,-737.3,-787.62,-839.22,-890.82,-943.6,-1013.1,-1083.8,-1139.9,-1201.7,-1273,-1334.9,-1391.7,-1457.9,-1532.5,-1612.2,-1693.7,-1768.1,-1836.3,-1913.5,-2003.1,-2095,-2191,-2295.2,-2395.3,-2490.4,-2590.7,-2686.9,-2774,-2859.2,-2931.5,-2980.1,-2990.6,-2922.2,-2763,-2534.6,-2231.1,-1857.3,-1438.2,-973.59,-489.53,-29.764,412.69,831.66,1192.1,1497,1746.3,1930.1,2065.3,2146.5,2172.8,2182.1,2171.5,2129.5,2089.5,2046.4,1984,1940,1917.1,1886.3,1861.2,1835.7,1784.7,1737.1,1705.9,1655.4,1598.6,1580,1587,1592.2,1604.9,1628.4,1649.6,1674.1,1711.1,1749.5,1782.5,1813.5,1829.6,1823.3,1817.7,1812.1,1774.5,1718,1672.5,1615,1531.9,1446.5,1356.5,1257.8,1163.5,1060.1,942.85,839.2,749.24,659.09,573.63,489.54,408.97,344.81,281.67,207.58,145.64,99.431,42.984,-23.883,-79.186,-125.52,-183.91,-250.88,-304.87,-348.42,-396.9,-447.21,-496.37,-549.1,-602.43,-660.95,-729.76,-792.87,-847.16,-909.15,-976.51,-1044.1,-1117.8,-1193,-1268.1,-1343.3,-1409.6,-1477.4,-1560.7,-1650.8,-1746.2,-1842.5,-1927.4,-2020.2,-2126.2,-2217.8,-2310.7,-2427.7,-2532.4,-2606.1,-2673.9,-2725.5,-2727.9,-2674.2,-2556.2,-2353.5,-2070.2,-1726.9,-1334.1,-913.89,-499.78,-95.877,299.43,657.28,959.4,1215.5,1428.7,1594.6,1710.9,1775.6,1799.5,1799.9,1781.6,1745.6,1702.8,1665.4,1633.5,1600.8,1569.9,1543.3,1518.5,1499.5,1478.3,1435.1,1385.4,1356.3,1330.2,1293.3,1273.4,1278.2,1290.8,1310.1,1332.3,1356.9,1393,1417,1418.4,1440.6,1478.5,1485,1474.8,1463.9,1431.8,1394,1356.7,1294.1,1222.7,1156.5,1074.9,984.78,893.07,795.78,713.38,636.67,539.77,443.93,363.31,289.23,226.96,169.31,113.83,69.112,12.19,-56.964,-104.36,-143.49,-194.89,-241.41,-282.72,-327.86,-376.54,-434.2,-486.61,-520.46,-560.16,-617.52,-670.8,-713.85,-764.18,-822.88,-871.62,-917.9,-977.52,-1033.3,-1090,-1167.6,-1234.6,-1283.7,-1354.7,-1433.4,-1500.9,-1579.9,-1663.7,-1743.9,-1830.2,-1911.4,-1996.6,-2092.8,-2172.7,-2249.4,-2338.2,-2400.9,-2428.6,-2428.6,-2375.9,-2258.1,-2065.8,-1802.2,-1508.7,-1189.7,-832.59,-474.47,-132.13,195.9,476.08,710.98,927.94,1102.6,1219.2,1300.5,1347.1,1353.2,1340.3,1324.5,1298.9,1260,1218.5,1184.4,1159.8,1141.8,1122.3,1091.8,1047.1,999.3,963.75,933.72,896.96,867.26,853.71,846.48,845.69,855.25,877.25,912.39,945.79,975.34,1012.6,1042,1059.1,1081.9,1090.9,1071.1,1050,1029.4,995.84,961.85,919.34,850.64,780.71,724.34,653.93,569.21,497.8,428.82,346.25,270.24,201.64,129.67,74.461,29.209,-31.177,-82.533,-116.62,-166.85,-227.09,-273.89,-312.08,-349.71,-394.99,-441.96,-472.26,-498.22,-533.31,-570.99,-619.1,-670.32,-707.4,-750.79,-803.13,-837.59,-872.04,-933.42,-999.99,-1051.2,-1102.2,-1162.8,-1216.5,-1265.5,-1334.4,-1413.6,-1483.9,-1559.3,-1641,-1720,-1808,-1895.6,-1969.6,-2045.4,-2122.8,-2187.7,-2233.8,-2247.4,-2220.9,-2141,-1982.7,-1759.7,-1497.4,-1191.5,-853.75,-508.46,-165.84,155.07,443.08,701.01,916.85,1086.9,1221.5,1316.3,1368.2,1387.3,1386,1371.8,1345.8,1318.4,1293.8,1255,1213.3,1196.7,1185.5,1163.7,1148.2,1122.9,1072.3,1026.7,994.12,962.09,946.61,942.08,920.58,904.16,916.61,931.71,947.02,978.88,1000.2,1006.1,1028,1050.4,1053.8,1053.7,1039,1005.8,981.39,953.59,904.29,845.78,773.78,696.22,630.41,552.73,467.18,403.28,329.45,232.28,156.07,95.711,24.341,-41.127,-98.35,-160.93,-220.08,-273.3,-325.31,-373.19,-421.42,-472.62,-524.06,-577.46,-626.62,-668.86,-716.23,-765.95,-808.03,-852.44,-902.6,-947.99,-996.21,-1056.4,-1113.4,-1160.9,-1217.7,-1286.8,-1348.3,-1406.3,-1481.2,-1557.5,-1612.4,-1668.9,-1742.7,-1812.9,-1884.5,-1973.3,-2056.8,-2128.1,-2207.7,-2293.6,-2383.5,-2476.3,-2554.2,-2623.9,-2698.2,-2757.9,-2787.1,-2768.2,-2677.9,-2523.3,-2307.2,-2024.2,-1700.9,-1347.3,-961.66,-578.29,-212.46,136.3,440.12,697.8,921.04,1093,1220.7,1316.9,1369.2,1393.3,1409.2,1407.4,1393.9,1384.4,1377.6,1370.6,1366.3,1369.6,1376.2,1379.1,1387.5,1396.6,1384.1,1357.7,1335.6,1315.6,1293,1268.7,1255.4,1264.8,1277,1275.9,1277.9,1294.9,1317.5,1332.4,1341,1351.9,1353.7,1340.9,1327.3,1302.9,1260.9,1218.3,1165.7,1099.4,1040.8,973.23,887.33,812.84,736.99,641.42,555.28,477.39,388.4,309.14,245.14,178.39,111.64,45.456,-21.483,-80.198,-140.02,-203.41,-249.95,-291.35,-348.22,-403.12,-455.09,-516.93,-563.86,-598.18,-657.22,-721.7,-768.38,-828.7,-899.39,-952.91,-1006.8,-1064.1,-1111.7,-1175.2,-1256.2,-1328.1,-1401.8,-1476.8,-1531.8,-1593,-1678.7,-1759,-1834.8,-1925.8,-2010.9,-2085.4,-2173.5,-2264,-2344.8,-2436.3,-2533.6,-2617.1,-2701.2,-2794.9,-2878.2,-2940.3,-2978.1,-2973,-2903,-2762.4,-2553.4,-2268.8,-1917.5,-1537.3,-1142.2,-724.87,-310.94,69.341,415.54,722.75,979.88,1191.5,1359.5,1476.9,1552.5,1605,1627.3,1616.9,1611.9,1616.7,1597.4,1582.7,1602.7,1616.9,1622.9,1651,1678,1689.5,1685.3,1650.6,1617.7,1613,1600.7,1580.7,1578.1,1576.8,1574.5,1583.5,1598.2,1617.6,1638.7,1662.3,1689.9,1696,1683.1,1680.7,1670,1644.3,1625.6,1588.9,1524.7,1464.3,1397.3,1314,1234.2,1151.9,1067.3,987.25,892.5,791.8,708.72,630.2,551.42,480.78,410.5,341.14,275.66,211.55,155.34,99.127,34.799,-19.498,-66.333,-125.27,-182.06,-224.91,-272.42,-331.05,-393.51,-458.11,-514.18,-559.04,-616.39,-688.08,-747.15,-798.35,-859.86,-922.5,-992.3,-1080,-1157.5,-1220.8,-1302.4,-1392.4,-1471.6,-1554.7,-1640.9,-1729.4,-1836.7,-1943.9,-2031,-2124.2,-2229.7,-2329,-2429.9,-2526.9,-2600,-2657.2,-2684.4,-2645.2,-2543.9,-2376.1,-2118.9,-1808.3,-1471.7,-1082.8,-669.57,-279.45,105.53,477.31,790.36,1051.6,1274.1,1439.9,1554.8,1636.2,1683.9,1696.1,1683.4,1661.8,1628.1,1577.7,1541.2,1526,1497.1,1461.8,1448.8,1438.9,1407.9,1362.2,1315.7,1276.9,1243.8,1219.4,1210,1204.9,1204.9,1224.8,1248.7,1266.9,1299.4,1337.1,1357.6,1377.9,1413.2,1441.1,1439.7,1419.5,1399.9,1372.6,1323.4,1267.2,1211.8,1141,1054.2,963.18,867.47,769.25,677.58,592.53,505.72,413.31,325.65,253.39,186.92,112.05,36.514,-24.117,-78.608,-145.44,-212.23,-261.35,-310.73,-369.55,-418.15,-462.12,-517.96,-571.76,-618.07,-670.34,-723.12,-770.93,-824.97,-884.68,-943.04,-1003.5,-1065.2,-1126.6,-1195,-1271.5,-1355.2,-1447.4,-1535.1,-1616.2,-1714.2,-1824.9,-1925.6,-2026.5,-2133.3,-2234.4,-2340.8,-2445,-2521.9,-2587.6,-2639,-2626,-2542.6,-2400.4,-2166.6,-1841.7,-1474.9,-1084.9,-670.85,-249.02,165.76,561.41,915.48,1208.4,1444.2,1637.1,1776.8,1852.9,1893.7,1914.7,1897.8,1856.4,1817.3,1770.9,1717.4,1674.2,1635.9,1594.4,1553.4,1513,1470.3,1416.8,1354.7,1302.5,1255.2,1209,1188.4,1186.4,1179.1,1184.9,1211.8,1234.2,1248.7,1272,1303.5,1323.9,1328,1334.4,1337.1,1320.9,1304.8,1278.6,1213,1141.1,1081.4,996.61,893.3,797.4,692.31,576.89,470.62,367.12,257.72,152.86,58.356,-34.487,-128.23,-215.76,-296.09,-364.09,-424.4,-504.19,-588.14,-641.62,-697.44,-770.51,-816.7,-852.03,-915.85,-982.85,-1035.2,-1084.6,-1133.7,-1190.9,-1254.4,-1315.2,-1381,-1447.1,-1506.4,-1570.3,-1637,-1705.7,-1783.5,-1859.1,-1934.9,-2019.1,-2098.7,-2184.9,-2287.9,-2381.6,-2475.7,-2586.6,-2680.8,-2770.4,-2895.7,-3017.5,-3112.2,-3216.3,-3303.6,-3330,-3309.2,-3223,-3037.8,-2771.9,-2425.5,-1992.6,-1516.2,-1019.7,-508.25,-11.917,456.83,885.41,1246.7,1550.1,1796.1,1968,2091,2174.3,2208.1,2222.3,2215.1,2170.3,2134.2,2113,2069,2030.8,2017.5,2003.2,1991.1,1974.1,1935.2,1898.6,1866.5,1823.1,1789.7,1760.5,1716.2,1694.6,1707.5,1708.6,1704.1,1726.9,1749.7,1761.2,1789.4,1807.7,1792.4,1790.7,1800,1769.8,1725.6,1690.7,1624.5,1536.1,1459.4,1372.2,1270.1,1172.7,1062.8,941.46,834.75,728.69,609.8,498.15,398.52,306.24,223.44,137.98,49.165,-29.021,-105.6,-181.5,-243.01,-306.35,-376.33,-433.98,-497.29,-573.89,-631.15,-677.73,-738.98,-801.65,-866.48,-937.19,-991.81,-1042.4,-1111,-1178.4,-1244.9,-1326.4,-1398.8,-1456.6,-1532.9,-1621.2,-1699.7,-1787.3,-1889.9,-1980.6,-2059.9,-2152.4,-2262.6,-2376,-2482.9,-2591.8,-2710.6,-2825.3,-2927.1,-3029.6,-3127.6,-3188.2,-3190.6,-3129.3,-2985.1,-2739.3,-2405.8,-2009.1,-1560.5,-1086.9,-613.24,-130.55,345.27,766.09,1126.7,1442,1694.9,1879,2011,2087.3,2104.8,2093.2,2072.8,2028.7,1962.5,1905.2,1862.1,1820.1,1784,1752,1714.8,1681.5,1649.8,1599.2,1535.5,1479.2,1430.3,1385.1,1356,1350.5,1355.4,1362.8,1381.4,1411.9,1444.8,1475.8,1499.3,1514.9,1535.8,1561.9,1572,1554.6,1516.7,1468.1,1415,1353.2,1268.7,1169.5,1080.5,990.87,876.87,758.35,654.9,551.65,446.94,346.98,246.73,158.4,82.479,-6.052,-95.512,-161.62,-221.85,-288.32,-350.16,-404.87,-449.01,-488.27,-539.25,-589.43,-626.23,-670.74,-725.5,-770.29,-811.36,-863.02,-919.18,-972.27,-1024.7,-1082.5,-1148.1,-1216.6,-1287.2,-1367.5,-1458.4,-1548.3,-1635.9,-1740.6,-1863.4,-1974.4,-2070.1,-2178.3,-2297.4,-2401,-2482.6,-2544.1,-2565.6,-2521.2,-2409.3,-2229.1,-1957.5,-1599.2,-1195.9,-766.09,-316.06,131.13,559.88,954.65,1300.6,1600.1,1836.6,1994.2,2100,2167.6,2186.3,2171.8,2137.3,2081.4,2012.9,1933,1849.3,1779,1708.3,1629.2,1561.2,1497.7,1425,1350,1267.9,1185.4,1128.8,1091,1059.3,1052.9,1066.5,1075.3,1091.1,1123.9,1153.9,1175.3,1197.5,1220.5,1234.8,1225.6,1205.1,1198.6,1175.8,1109.3,1035,962.91,873.59,777.43,664.7,530.5,413.05,301.76,170.99,54.79,-47.887,-166.73,-278.95,-375.66,-470.25,-551.07,-629.28,-719.26,-799.36,-867.29,-932,-989.67,-1053.7,-1119.2,-1166.4,-1221.6,-1293.4,-1341.7,-1379.7,-1446.5,-1511.2,-1552.9,-1611.9,-1683.1,-1729.4,-1783.9,-1870.9,-1941.8,-1996.1,-2080.9,-2172.4,-2246.3,-2341,-2448.8,-2535.9,-2635.3,-2760.6,-2869.5,-2970.6,-3095.2,-3219.5,-3322.4,-3414.3,-3492,-3531.7,-3493.2,-3347.8,-3111.5,-2796.7,-2392.4,-1920.1,-1416.5,-897.18,-382.49,108.43,565.92,974.01,1322.5,1601,1802.4,1952.3,2062.5,2111.8,2118.8,2115.7,2091.1,2049.2,2011.3,1965.9,1920.9,1906.6,1903.3,1887.3,1878.1,1870.1,1839.2,1795.1,1742,1682,1645.8,1628.6,1603.3,1585.2,1577.3,1565.6,1574.4,1602.6,1617.2,1626.7,1642.8,1652,1652.3,1638.6,1611.4,1586.1,1549.5,1484.7,1404.5,1314.6,1215.6,1115,1007.2,890.35,775.94,663.97,547.19,427.73,313.5,203,92.074,-4.5969,-86.037,-181.14,-281.71,-350.97,-405.15,-480.42,-565.46,-637.55,-698.65,-753.52,-807.69,-871.47,-933.66,-980.39,-1035.7,-1110.9,-1174.4,-1227.7,-1297.3,-1367.3,-1426.3,-1495,-1572.2,-1647,-1728.6,-1816.2,-1901.2,-1992.8,-2098.1,-2203.4,-2303.9,-2418.7,-2548,-2665.9,-2772.2,-2884.1,-2996,-3094.5,-3170.7,-3212.7,-3200.3,-3099.6,-2892.1,-2597.6,-2230,-1789.1,-1297,-782.23,-263.37,232.47,685.54,1099.2,1463,1746.6,1955,2120,2231.5,2273.7,2286.2,2291.1,2263.2,2216.6,2179.4,2132.9,2078.6,2050.8,2044,2030.7,2004.2,1966.2,1923.9,1880.2,1829.4,1777,1729.6,1688.9,1662.3,1646.4,1635.7,1639.5,1650,1656.7,1674.3,1698.1,1708,1706.9,1693.9,1673.4,1660.4,1630.5,1569.5,1514.4,1458.9,1365.5,1257.2,1162,1062.3,949.18,832.16,716.72,601.22,481.19,367.51,270.9,176.55,79.961,-5.4154,-85.023,-163.45,-231.51,-295.61,-361.33,-421.11,-480.29,-542.1,-597.62,-652.45,-711.91,-767.15,-817.69,-866.46,-916.64,-978.88,-1048.5,-1112.4,-1172.8,-1233.6,-1305.3,-1393.9,-1472.4,-1534.1,-1612.4,-1710.4,-1810.4,-1917.2,-2031.8,-2140.3,-2237.3,-2340.9,-2467.9,-2586.5,-2674.7,-2768.4,-2857.5,-2884.6,-2849.3,-2751.4,-2556.2,-2269.7,-1911.2,-1488,-1029.8,-556.7,-78.673,376.2,793.96,1164.4,1467.2,1709.1,1898.8,2020.9,2077.6,2094.3,2088.4,2059.7,2002.8,1929.5,1853.4,1778,1715.6,1667.6,1617.2,1563.3,1503.5,1426.6,1344.1,1268.2,1197.7,1143.3,1109.9,1088.8,1084.9,1104.7,1137.3,1170.5,1205.6,1250,1297.1,1331.4,1353.9,1372.8,1383.1,1379.1,1358.4,1320.4,1270.5,1207.4,1127.9,1039.8,943.57,839.59,738.42,628.83,504.53,393.65,293.77,181.96,81.669,2.5572,-86.354,-178.96,-251.25,-314.54,-386.09,-463.87,-527.29,-567.89,-615.28,-677.63,-725.1,-760.35,-804.41,-849.16,-884.82,-920.12,-967.48,-1022.2,-1070.3,-1124.5,-1192.4,-1247.3,-1293.9,-1361.1,-1438.6,-1517,-1606.4,-1703.2,-1805.9,-1915.2,-2018.1,-2118,-2228.1,-2343.7,-2453.2,-2549.2,-2630.5,-2692.5,-2710.5,-2655.1,-2516,-2291.2,-1977,-1585.3,-1146.4,-678.83,-194.87,273.9,710.59,1119.2,1476,1761,1987.2,2153.1,2254.3,2304.4,2304,2267.4,2220.4,2152.2,2060.7,1973.6,1896.4,1828.3,1769.4,1701,1629.1,1568.5,1493.4,1398.8,1321,1263.7,1208.2,1165.5,1150,1150,1158.4,1184,1214.4,1231.5,1253.7,1293.3,1322.8,1329.9,1327.4,1315.4,1289.4,1249,1190.7,1120.8,1043.1,948.25,839.98,732.25,617.01,485.81,359.99,249.53,128.84,-3.6092,-114.22,-205.19,-305.9,-408.03,-494.11,-578.44,-664.53,-734.82,-797.31,-870.72,-944.24,-1005.5,-1064,-1125.8,-1189.6,-1252.9,-1309.2,-1365.9,-1430,-1483,-1527.7,-1589.1,-1656.6,-1719.5,-1791.5,-1859.8,-1918.5,-1991.6,-2074.1,-2155.9,-2246.7,-2334.4,-2421.1,-2527.1,-2632.2,-2726.9,-2836.3,-2953.6,-3067.4,-3186.4,-3302.2,-3412.4,-3516.8,-3592.7,-3634.4,-3633.5,-3549.9,-3367.9,-3083.7,-2683.3,-2196.3,-1668.2,-1108.5,-529.71,39.183,572.85,1045.6,1448.6,1787.9,2054.4,2242.6,2368.9,2443,2469.7,2473,2458.8,2413.7,2368.1,2346.4,2312.2,2271.8,2271.6,2278.4,2260.5,2254.7,2251.9,2215.9,2167.7,2122.1,2065,2004.9,1964.7,1953.9,1952.1,1934.8,1921.3,1930.9,1944.5,1954.5,1965.5,1967.8,1958.2,1937.8,1905.4,1866.1,1815.3,1753,1689.2,1606.6,1493.5,1381.8,1279.5,1159.1,1026.9,901.94,778.18,654.88,532.41,402.28,279.26,177.06,78.294,-21.908,-109.57,-187.49,-262.92,-336.84,-412.72,-486.32,-551.33,-610.64,-669.62,-737.7,-815.47,-885.85,-950.27,-1025.4,-1100.9,-1166.3,-1238.1,-1317.5,-1385.5,-1445.7,-1518.7,-1606.2,-1692.6,-1776,-1867.5,-1963.3,-2052.9,-2144.1,-2244.3,-2345.7,-2444.2,-2549.3,-2671.9,-2806,-2935.1,-3055.8,-3171,-3279.6,-3383.5,-3477.1,-3548.1,-3584.5,-3550.7,-3418.7,-3195.8,-2868.4,-2428.6,-1935,-1418.9,-860.4,-295.63,228.94,717.8,1157.4,1524.3,1818.9,2035.1,2189.5,2307.6,2371.2,2378.5,2355.8,2307.2,2256,2224.1,2183.2,2137.1,2114.6,2096.3,2075.2,2062,2036.7,2000.1,1962.5,1903.5,1835.4,1789.1,1752.7,1716.2,1697.7,1700.4,1704.8,1702.1,1713.7,1741.3,1747.9,1741.4,1758,1768.3,1740.1,1702,1668.3,1624.3,1566.5,1485.7,1380.4,1279.4,1184.3,1062.4,926.14,809.25,689.26,551.03,431.63,329.66,215.09,106.76,12.269,-91.26,-183.05,-244.17,-305.07,-378.48,-450.87,-516.36,-567.89,-614.01,-672.56,-728.14,-766.51,-807.51,-859.45,-912.55,-967.19,-1022.4,-1077.8,-1140.7,-1205.4,-1268.5,-1340.9,-1416.6,-1495.7,-1597.8,-1701.1,-1783.6,-1884.6,-2012.8,-2132.1,-2253.4,-2385.6,-2506.6,-2632.7,-2765.9,-2865,-2940.8,-3016.8,-3047.8,-2987.9,-2834.7,-2588.6,-2245.8,-1816.9,-1334.5,-825.01,-295,228.06,709.07,1148.1,1537.9,1852.4,2095.5,2276.3,2388.3,2442.7,2457.3,2440,2401,2344.7,2273.5,2196.5,2120.5,2057.7,2016,1977.4,1929.5,1869.1,1781.4,1685,1616,1556.3,1491.2,1451.7,1431.5,1408,1407.6,1436.6,1460.7,1479.7,1509.7,1537.3,1547.9,1547.3,1547.1,1543.1,1515.2,1462.4,1403.3,1335.5,1244.3,1135.4,1024.3,911.14,783.88,640.69,494.11,353.24,222.95,105.14,-12.789,-133.99,-239.84,-336.01,-442.26,-542.54,-625.39,-709.81,-792.71,-859.95,-921.72,-986.59,-1056.7,-1129.6,-1191.5,-1248.1,-1310.6,-1369.5,-1430.5,-1489.9,-1529.8,-1588.5,-1680.3,-1744.8,-1797.5,-1888,-1972.4,-2044.8,-2145.3,-2234.3,-2310.8,-2430.2,-2551.1,-2643.2,-2761.9,-2895,-3006.4,-3128.5,-3263.2,-3386.6,-3505.6,-3606.3,-3687,-3760.4,-3769,-3668,-3480.7,-3187.5,-2768,-2277.4,-1739,-1146.2,-548.64,18.222,556.42,1041,1455,1807.2,2085.9,2283.5,2417.5,2496.1,2528.3,2539.1,2535.2,2507.4,2472.1,2445.7,2413.2,2381.3,2382.1,2399.2,2395.2,2378,2364.3,2339.9,2287.7,2221.6,2169.6,2124.6,2066,2018.3,2001.7,1990.5,1978.6,1978.3,1976,1970.9,1975.5,1975.8,1965.3,1951.9,1922.2,1877.8,1834.1,1764.6,1664.5,1579.1,1494.4,1367,1229.7,1111,979.4,832.15,697.34,576.43,454.56,327.52,210.66,110.64,8.4643,-97.074,-192.21,-277.55,-350.89,-425.59,-516.69,-590.43,-641.48,-715.3,-796.7,-855.66,-922.33,-1000.5,-1070.4,-1145,-1217,-1277.9,-1354.1,-1436.9,-1502.5,-1575.5,-1665.5,-1749.6,-1832,-1922.4,-2011,-2099.5,-2198.4,-2307.4,-2417.7,-2521.9,-2625,-2733.5,-2846.5,-2971.2,-3105.5,-3229.2,-3345.9,-3472.2,-3591.9,-3684.9,-3753.9,-3790.6,-3763.5,-3641.4,-3408,-3064.2,-2622.8,-2108.3,-1548.4,-962.04,-374.03,182.32,691.27,1146.3,1531.1,1839.7,2077.6,2246,2351.8,2406.9,2420.7,2410.2,2385.7,2344.4,2299.9,2265.7,2235.5,2215.5,2212.7,2208.7,2199.1,2191,2163.4,2105.4,2041.4,1986.4,1934.2,1882.1,1835.3,1803.1,1796.3,1810.6,1819.4,1819.4,1837,1859.2,1859,1859.6,1861.8,1834.7,1801,1776.5,1728.5,1657.5,1576.1,1476.8,1371.7,1264.2,1145.8,1028.5,908.28,777.69,648.14,515.82,393.72,299.27,202.36,98.989,11.705,-78.647,-169.29,-245.43,-329.27,-397.84,-432.13,-488.57,-564.86,-609.88,-647.95,-705.73,-767.16,-824.87,-866.93,-900.82,-959,-1031.4,-1095.1,-1159.7,-1232.4,-1314.3,-1400,-1479.3,-1563,-1657.4,-1758.3,-1874.1,-1995.4,-2107.1,-2226.7,-2359.1,-2490.4,-2622.5,-2745.2,-2842.1,-2924.9,-2996.2,-3023.5,-2972.3,-2829.1,-2592.7,-2258.1,-1831.5,-1342.4,-818.32,-278.61,249.43,742.7,1193.6,1592.9,1915.6,2153.9,2338.6,2481.4,2559.8,2578.3,2558,2514.4,2471.7,2422.3,2351,2287.1,2227.6,2152.1,2098.4,2058.9,1984.9,1907.5,1842.1,1755.7,1673.8,1607.1,1535,1497.5,1498.4,1487.6,1486.7,1516.7,1541.8,1561.5,1583.3,1594.9,1611,1622.3,1600,1564.4,1522.9,1452.1,1367.2,1281.1,1175.4,1054,928.8,799.15,665.88,519.51,364.48,228.52,110.91,-2.4022,-110.96,-225.44,-343.28,-446.04,-545.1,-644.69,-726.25,-800.79,-880.22,-949.46,-1011.8,-1083,-1156.9,-1220.3,-1279.1,-1349.7,-1424.4,-1489.1,-1558.6,-1630.4,-1684.9,-1742.4,-1814.6,-1880.2,-1947.2,-2028.8,-2116.5,-2210.9,-2299.4,-2375.3,-2476.6,-2606.5,-2719.8,-2817.3,-2928.9,-3055,-3184.5,-3307.9,-3425,-3548.3,-3666,-3759,-3833.5,-3873.2,-3838.7,-3715.6,-3485.5,-3131.5,-2679.3,-2147,-1548.5,-942.85,-355.33,226.98,762.71,1221.1,1623.6,1955.3,2194.9,2367,2486,2554.3,2584,2581,2552.1,2507.8,2467.4,2449.3,2433.1,2410.9,2410.9,2414.8,2396.7,2381.2,2357.7,2302.4,2249.3,2200.5,2127.2,2061.3,2030.2,2007.1,1986.8,1983.5,1984,1978.3,1978.1,1984.2,1989.6,1993.3,1983.5,1954.5,1925.7,1895,1835.5,1751.4,1659.1,1554.4,1444.4,1335.9,1208.2,1062.9,933.58,815.72,677.74,533.11,409.65,295.42,178.51,67.732,-37.592,-135.26,-217.41,-295.53,-377.24,-453.34,-525.36,-598.67,-670.86,-744.38,-816.82,-879.43,-941.38,-1015.9,-1092.6,-1161.7,-1228.8,-1290.8,-1353.5,-1435.8,-1515.9,-1572.5,-1649.2,-1758.1,-1848.7,-1925.7,-2029.3,-2146.6,-2252.9,-2348.7,-2445.1,-2554.2,-2668.7,-2784.5,-2915.9,-3050.6,-3172.7,-3295.7,-3418.3,-3533,-3639.4,-3707.6,-3709.7,-3642.6,-3488,-3231.4,-2874.2,-2413.8,-1883.4,-1336,-775.82,-203.76,337.04,822.01,1259.2,1631.9,1910.8,2113.6,2272.9,2371.9,2401.2,2404.2,2396.1,2358.2,2310.3,2274.9,2241.2,2206.3,2177.2,2157.9,2149,2135.9,2108.5,2069,2012.4,1948.4,1896.3,1848.8,1803.1,1774.5,1759.7,1752,1760.2,1785.3,1812.1,1827.1,1838.2,1860.3,1874.6,1861.2,1840.5,1815.1,1759.7,1688.2,1623.7,1544.4,1436.2,1322,1214,1099.7,971.49,838.71,711.91,587.11,461.31,344.3,239.82,146.6,62.656,-28.364,-125.8,-200.51,-258.84,-330.6,-400.61,-448.71,-495.2,-556.6,-624.31,-683.4,-730.04,-778.13,-832.39,-886.42,-945.68,-1006.4,-1063.2,-1128.1,-1189.6,-1241.1,-1316.3,-1406.7,-1479.9,-1568,-1684.7,-1786,-1872.3,-1975.1,-2094.5,-2221.5,-2347.6,-2467,-2589.2,-2710.8,-2809.5,-2880.5,-2937.1,-2959.3,-2891.6,-2727,-2490.7,-2153.1,-1718.7,-1265.3,-794.34,-274.28,235.82,701.89,1138.6,1507.4,1794.5,2036.7,2222.2,2332.5,2387.7,2397.9,2373.8,2333.3,2276.2,2204.2,2130.5,2068.3,2020.6,1968.9,1908.7,1853.2,1785.7,1699.6,1623.2,1550.8,1467.5,1403.1,1368.4,1344.8,1333.5,1338.4,1364.6,1412.4,1447.6,1462.7,1494.6,1529.6,1538,1542.7,1544.7,1515,1462.7,1405.8,1343.2,1266.6,1164.3,1044.4,919.56,789.24,669.47,553.33,406.71,262.91,161.39,59.775,-55.746,-152.47,-246.64,-349.92,-438.64,-518.08,-595.5,-663.65,-735.87,-809.46,-866.18,-922.47,-991.65,-1058.8,-1122.2,-1182.6,-1231.1,-1280,-1339.1,-1393.1,-1444.4,-1513.5,-1593.1,-1660.3,-1714,-1778.7,-1874.7,-1982.3,-2071.9,-2156.6,-2256.7,-2366,-2480.9,-2596.4,-2702.8,-2817.5,-2950.7,-3078.8,-3197,-3314.9,-3411.9,-3474,-3508.6,-3486.5,-3366,-3148.8,-2838.3,-2422.5,-1931.5,-1412.1,-872.88,-323.97,204.75,694.5,1129.9,1498.3,1799.9,2037.4,2218,2341,2403,2427.1,2427.3,2398.3,2364.1,2333.7,2292.4,2266.4,2257.2,2230.1,2213.4,2221,2198.4,2150.1,2106.9,2043.1,1966,1917.8,1890.8,1869.2,1857,1842.6,1824.9,1824.1,1838.6,1849.1,1853.2,1855.5,1852.2,1843.7,1829.7,1803.9,1767.9,1719,1642.1,1546.4,1456,1361.8,1245.7,1124.7,1015.8,900.29,764.88,627.29,498.58,377.09,267.61,162.2,55.147,-35.484,-118.36,-216.92,-306.88,-372.37,-443.16,-519.57,-580.4,-640.03,-707.79,-770.54,-837.47,-916.3,-985.56,-1044.8,-1113.3,-1178.6,-1233.8,-1300.4,-1371.5,-1434.9,-1512,-1600.4,-1678,-1752.7,-1831.1,-1913.1,-2006.3,-2101.3,-2195.6,-2297.4,-2388.8,-2476.6,-2592.4,-2718.3,-2832.1,-2943.6,-3049.5,-3161.8,-3296.3,-3415,-3499.9,-3577.4,-3623.1,-3590.5,-3480.5,-3287.7,-2989.2,-2597.6,-2139.4,-1631.6,-1106.9,-583.79,-53.755,449.23,876.52,1245.4,1566.2,1807.4,1982.9,2110.2,2172.3,2196.7,2211.6,2198.2,2167.6,2133.3,2087,2056.8,2047.1,2029.1,2026.8,2042.8,2026.8,1982.6,1939,1892.8,1844.8,1793.7,1746.3,1721.4,1703.8,1691,1707.8,1725.7,1722,1737.9,1773.7,1792.1,1801.4,1807.6,1791.4,1767.4,1749.3,1709.5,1640.1,1567.8,1491,1393.7,1290.1,1187.2,1073.8,957.75,843.62,724.31,611.28,506.75,399.93,305.07,224.69,134.57,43.45,-27.101,-95.129,-172.64,-237.17,-290.28,-359.59,-432.72,-481.04,-523.17,-578.5,-629.13,-673.53,-724.35,-775.94,-830.44,-891.54,-948.88,-1004.3,-1059.8,-1111.5,-1176.3,-1260.2,-1342.9,-1418.2,-1497.5,-1590.4,-1692.5,-1785.8,-1877,-1988,-2107.4,-2220.1,-2330.8,-2439.9,-2553.5,-2670,-2770.5,-2860.2,-2937.6,-2958.9,-2900.4,-2766.3,-2553.6,-2264.8,-1898,-1457,-981.69,-494.22,4.7334,476.28,894.11,1274.2,1604,1860,2053.6,2192.1,2273,2307,2302.8,2277.8,2251.3,2204.3,2126.9,2063,2023.9,1973.2,1918.4,1875.9,1821.2,1762.9,1715.8,1641.3,1551.4,1503.7,1475.1,1429.4,1400.3,1404.2,1419.6,1436.4,1448.2,1463.2,1496.8,1529.5,1536.4,1527.8,1518.8,1506.6,1481.1,1434.8,1368.9,1293.2,1213.5,1119.9,1003.7,879.7,760.8,639.45,513.64,385.98,255.12,137.91,43.455,-58.489,-175.86,-275.36,-360.54,-453.1,-530.82,-591.6,-666.17,-737.66,-791.33,-856.41,-923.66,-976.79,-1044.5,-1116,-1161.4,-1210.9,-1282.7,-1353.8,-1421.8,-1492.7,-1557.2,-1611.4,-1666.2,-1732.4,-1802.7,-1881.4,-1983.2,-2072.5,-2125.8,-2194.9,-2297,-2398.3,-2497.9,-2595.1,-2688.2,-2801.3,-2921.3,-3023.7,-3131.4,-3252.7,-3369,-3476.6,-3576.3,-3664.9,-3720.5,-3702.9,-3600.7,-3414.8,-3128.5,-2748.9,-2304.4,-1804.2,-1256.1,-694.75,-158.65,345.99,820.99,1232.3,1557.4,1822,2036.6,2184.1,2273.3,2327.8,2352.8,2346.1,2318.7,2291.5,2272.2,2255.7,2242.9,2241.7,2255.1,2267.3,2259.5,2240.2,2220.3,2185.2,2131.6,2078.4,2038.1,2007.6,1974.6,1947.3,1945.9,1951.7,1948.3,1957.4,1966.5,1956.1,1960.4,1974.8,1952.1,1915.3,1897.9,1868.5,1809.9,1740.9,1664.6,1573.2,1463.5,1347.5,1241.9,1127.9,993.01,871.46,768.93,657.42,546.41,442.07,325.79,220.63,148.06,69.666,-29.841,-116.2,-188,-268.11,-345.95,-406.37,-462.06,-525.54,-595.22,-669.46,-743.53,-808.63,-870.55,-943.41,-1018,-1072.4,-1115.6,-1176.3,-1253.9,-1327.5,-1396.8,-1473,-1552.7,-1626.8,-1697.5,-1776,-1867.8,-1967.8,-2068.7,-2164,-2254.2,-2353.3,-2463.6,-2571,-2678.2,-2796.7,-2918.6,-3031.7,-3139,-3251.4,-3363.2,-3440.6,-3466.1,-3446.3,-3354,-3158.3,-2872,-2500.8,-2047.7,-1556.1,-1049.5,-525.35,-16.603,449.04,879.16,1260.1,1562.3,1788.1,1960.1,2087,2163,2195.4,2198.5,2170.5,2126,2092.3,2055.9,2006.8,1972.6,1950.5,1919,1886.9,1851.9,1804.1,1754.5,1698.6,1633.5,1586.7,1561.5,1536.5,1515.4,1513.2,1531.5,1554.9,1568.3,1587,1618.4,1638.9,1653.7,1677.6,1682.7,1661.2,1637.8,1599.8,1534.1,1465.3,1394.6,1303.3,1200.3,1091.2,969.17,849.44,739.21,624.35,511.98,408.91,301.36,202.35,120.48,22.398,-85.28,-160.41,-215.63,-276.18,-336.02,-396.98,-456.31,-509.66,-570.82,-628.39,-669.25,-715.38,-768.39,-820.39,-878.39,-923.34,-961.4,-1031.7,-1105.2,-1149.4,-1206.3,-1285.6,-1355.9,-1431.5,-1530.3,-1631.3,-1717,-1800.2,-1905.1,-2027.5,-2146.8,-2266.4,-2387.5,-2503.7,-2622.5,-2729.8,-2804.4,-2856.2,-2875.1,-2825.6,-2691,-2459.8,-2136.7,-1749.8,-1305.6,-816.47,-323.62,161.09,630.94,1046.4,1400.2,1712.3,1966.1,2144.3,2263.9,2339.2,2369.2,2348.6,2291.4,2238.8,2197,2131,2051.4,1998.4,1961.1,1912.4,1856.9,1798.6,1733.5,1664.5,1590.7,1515.2,1456.4,1423.6,1404.4,1394.3,1402.9,1422.4,1440.4,1466.8,1497.2,1512.3,1524.7,1543.3,1545.7,1530.3,1507.6,1466.4,1408.2,1349.4,1281.2,1186.5,1074.3,959.68,835.32,697.02,569.51,457.05,332.1,199.6,80.126,-37.763,-152.03,-240.23,-319.42,-417.18,-513.22,-586.91,-663.61,-755.01,-830.54,-884.2,-939.65,-999.55,-1062.4,-1129.5,-1189.1,-1247.2,-1312.4,-1368.7,-1425.1,-1495.4,-1555.8,-1614,-1696.4,-1777.2,-1843.9,-1916.9,-1989.1,-2066.3,-2168,-2266,-2349.7,-2454.8,-2575.2,-2683.5,-2793.9,-2914.9,-3034,-3154.5,-3275.1,-3385.9,-3496.4,-3606.4,-3687,-3720.5,-3698,-3590.1,-3376.4,-3066,-2669.9,-2197.1,-1668.2,-1107.6,-544.76,-14.896,471.19,923.23,1320.1,1626.4,1853.6,2029.9,2153.5,2224.7,2254.3,2248.1,2223.2,2189.9,2149.6,2121.8,2105.4,2083.1,2074.7,2080,2068.1,2048.8,2022.9,1970.4,1918.6,1876.9,1824.6,1785.2,1761,1728.3,1713.7,1715.5,1699.8,1695.2,1711.8,1712.6,1711,1720.4,1713.5,1690.2,1659,1615.8,1569,1512.3,1433.7,1342.4,1238,1123.9,1019.5,916.26,795.47,664.44,533.39,406.71,287.97,176.41,71.821,-29.793,-130.06,-224.14,-316.47,-403.13,-473.2,-545.25,-629.99,-704.65,-763.28,-809.71,-840.79,-873.45,-913.49,-945.49,-978.65,-1021.6,-1064.4,-1114.8,-1174.6,-1227.1,-1281.7,-1352.9,-1423.7,-1486,-1557.3,-1638,-1718.5,-1811.8,-1912.1,-1992.1,-2075.2,-2189.3,-2300.5,-2402.5,-2523.6,-2644.4,-2758.2,-2885,-2999.6,-3100.6,-3209.2,-3278.3,-3280.9,-3232.7,-3090.7,-2839.3,-2523.9,-2131.7,-1658.6,-1164.9,-663.14,-149.73,330.4,762.63,1154,1488.5,1764.1,1977.2,2119.4,2210.2,2256.6,2259,2247.5,2225.8,2179.5,2133,2097.4,2055.3,2017.3,1996.9,1977.5,1939.9,1882.6,1817.2,1748.3,1677.5,1622.1,1582,1546,1525.3,1518.5,1520.1,1541.3,1558.4,1557.7,1579.4,1610.4,1608.2,1602.1,1603.8,1578.8,1531.7,1475.9,1407.8,1335.5,1253.1,1148.8,1032.3,911.38,795.47,678.79,528.68,362.52,235.6,137.75,28.666,-87.753,-199.22,-306.45,-404,-495.41,-591.56,-682.09,-751.38,-811.17,-882.12,-961.63,-1033.5,-1093.1,-1151.3,-1223.4,-1309.3,-1387.7,-1447,-1509.8,-1592.3,-1673.2,-1748.7,-1841.1,-1936.7,-2021.5,-2128.7,-2255.2,-2358.2,-2455.4,-2581.3,-2714.7,-2845.7,-2993.2,-3141.5,-3269.7,-3395.9,-3529.7,-3648.3,-3740.8,-3808.8,-3824.2,-3744.1,-3561.5,-3299.6,-2967.2,-2564.3,-2116.2,-1650.6,-1177.8,-722.9,-305.7,85.273,445.25,768.01,1074.2,1340.2,1529.7,1678.9,1809.7,1898,1956.4,1998.5,2016.4,2030.2,2045.6,2047,2048.1,2055.9,2054.9,2037.7,1999.7,1958.9,1933.2,1897.7,1847.6,1820.2,1823.9,1843.6,1864.3,1877.5,1908,1962.7,1999.1,2015.4,2043.8,2070.3,2078.4,2077.6,2061.2,2024.4,1974.6,1912,1845.9,1775.1,1674.5,1557.4,1451.4,1336.3,1207.4,1090.5,971.64,843.79,734.77,635.89,528.19,426.5,332.65,241.05,163.79,93.66,11.366,-73.453,-142.87,-208.73,-286.08,-356.36,-417.9,-499.21,-576.63,-623.81,-685.93,-765.01,-822.4,-895.3,-995.16,-1070,-1138.6,-1228.7,-1310.6,-1393.7,-1492,-1584.6,-1684.3,-1794.8,-1894.8,-2002.5,-2122.8,-2237.6,-2364.9,-2498.5,-2615.1,-2735.7,-2860.4,-2968.6,-3067.7,-3136.7,-3150.6,-3111.5,-2979.9,-2730.9,-2405.5,-2013.1,-1555.3,-1072.3,-567.07,-46.936,433.02,862.32,1253.2,1580.3,1838.8,2042.6,2187.2,2277.5,2329.7,2356.2,2359.5,2331.2,2295.5,2287.3,2284.7,2267.9,2263.7,2266.3,2252.8,2243.9,2238.4,2204.2,2157.4,2114.1,2050.7,1987.3,1956.6,1927.2,1890,1874.3,1862.2,1844.3,1844,1844.2,1840.6,1855.3,1855.8,1826.7,1803.7,1775.3,1728.5,1685.1,1624.1,1537,1457.1,1365.2,1246.6,1141.6,1042.3,918.51,797.88,694.01,583.9,473.22,377.58,287.13,190.78,96.667,18.251,-49.636,-120.33,-193.77,-269.02,-340.32,-394.32,-446.94,-516.79,-576.84,-615.2,-663.4,-726.05,-784.7,-840.81,-895.86,-951.96,-1017.2,-1081.5,-1142.3,-1216.3,-1296.8,-1370.7,-1447.2,-1526.7,-1609.6,-1709,-1812.6,-1903.4,-2000.9,-2117.6,-2233,-2336.9,-2440.7,-2549.7,-2655.2,-2748.7,-2834.4,-2913.5,-2951.6,-2899.2,-2754.8,-2547.3,-2268.8,-1906.3,-1489.7,-1045,-584.06,-134.64,294.51,702.59,1051.5,1327,1562.7,1759.6,1890.6,1959.9,1990,1998.1,1992.8,1971.6,1937,1904.7,1881.1,1860.7,1842.8,1826.8,1802.6,1765.4,1722,1670.9,1607.2,1543.1,1490.6,1449.7,1419.9,1398.5,1386.9,1392,1405.4,1418.4,1439.2,1466.5,1491.9,1510.2,1510.5,1499.8,1493,1469.9,1423.1,1379,1324.9,1239,1150.9,1072.9,981.42,877.84,771.14,663.71,570.15,482.27,380.65,282.73,202.2,127.43,58.993,-5.142,-73.455,-135.33,-191.36,-257.13,-323.65,-380.53,-435.91,-489.63,-541.19,-593.8,-637.64,-678.81,-739.02,-804.83,-854.51,-905.48,-972.43,-1041.9,-1106.4,-1173.2,-1254.4,-1348.4,-1429,-1494.5,-1578.4,-1679,-1767.3,-1852.7,-1958.4,-2075.5,-2179.2,-2270.6,-2376.9,-2494,-2592.1,-2677.1,-2755,-2797.4,-2794.5,-2735,-2587.4,-2357.8,-2059.3,-1682.5,-1259.5,-833.33,-399.36,38.967,448.42,809.62,1119.8,1377.4,1580.8,1731.5,1831.9,1885.4,1914.5,1933.1,1916.2,1869.5,1842.7,1833.7,1811.6,1788.7,1775.7,1758.3,1734.2,1705,1663.9,1609.5,1549.6,1495.5,1450,1409.2,1376.2,1353.8,1344.3,1349.8,1357.9,1362.4,1377,1399.7,1412.6,1414.5,1409.8,1396.1,1371.8,1333.8,1280.8,1218.3,1149.9,1076.6,993.71,895.6,792.3,690.58,580.1,468.36,371.11,270.69,159.58,67.785,-7.2347,-92.497,-168.44,-222.65,-289.53,-364.38,-417.37,-474.45,-550.54,-610.37,-657.42,-719.36,-782.24,-838.14,-899.46,-959.09,-1017.3,-1080.3,-1132.9,-1181.8,-1249.4,-1319.7,-1381.6,-1449.7,-1515.2,-1572.7,-1643.3,-1726.5,-1807,-1885.6,-1963.7,-2045.5,-2135,-2223.6,-2319,-2428.9,-2527.8,-2614.2,-2717.5,-2826.8,-2924.4,-3026.5,-3125.3,-3209,-3299,-3383,-3425.4,-3419.2,-3334.7,-3143.9,-2882.6,-2558.5,-2145,-1685.5,-1227,-756.96,-289.1,142.47,533.81,878.7,1169.2,1402.2,1571.5,1701.8,1813.9,1882.3,1906,1912.5,1907.7,1909,1927.1,1932.6,1931.6,1952,1973,1982.5,1993.3,1987.1,1957.3,1924.6,1885.7,1843.9,1819.2,1794.9,1749.6,1711.4,1710.1,1724.2,1725,1728.2,1748.3,1761,1757.4,1751.1,1740.1,1726.3,1705.6,1658.2,1597.5,1538.8,1465,1387.4,1315,1215.6,1100,1001.9,903.79,796.03,691.84,588.07,489.93,400.79,312.57,234.62,162.52,82.676,13.438,-43.539,-108.18,-172.13,-233.52,-301.66,-359.61,-402.78,-450.79,-508.86,-570.29,-628.87,-688.03,-750.49,-798.92,-844.82,-921.25,-998.49,-1048.9,-1112.1,-1188.9,-1245.8,-1307,-1388,-1462.5,-1533.9,-1615.4,-1700.6,-1791.5,-1891.6,-1994.7,-2094.4,-2186.1,-2280.4,-2388.9,-2500.1,-2601.4,-2694.1,-2786.3,-2881.1,-2954.1,-2977.9,-2955.6,-2879.3,-2712.5,-2447.5,-2117.9,-1743.1,-1314.2,-845.93,-383.27,60.177,485.53,861.83,1176.4,1447.5,1666.3,1819.7,1923.4,1991.6,2029.8,2039.8,2024.1,1994.9,1962.2,1937.8,1931,1920.6,1897.7,1884.5,1872.2,1843.9,1806.6,1748.5,1677.8,1632.6,1598.3,1557,1539.8,1544.2,1548.9,1568.1,1597,1616.1,1634.9,1657.5,1673.4,1677.9,1674.5,1672.2,1657,1610.4,1555.5,1500.1,1422.3,1340.1,1257.3,1138.5,1012.6,917.21,812.22,686.75,572.88,459.4,345.53,249.3,150.15,49.99,-26.207,-99.918,-184.95,-263.54,-333.38,-388.63,-435.72,-505.48,-582.93,-640.91,-700.41,-763.1,-811.22,-864.24,-932.38,-999.29,-1062.2,-1124.4,-1191.1,-1266.2,-1335.4,-1398.4,-1472.5,-1549.2,-1615.5,-1686.6,-1769,-1849.9,-1930.9,-2021.3,-2113.7,-2205.5,-2307.4,-2410.5,-2500.3,-2593.9,-2708.2,-2828.7,-2942.1,-3049.2,-3149.2,-3243,-3329.1,-3394.7,-3425.6,-3403.6,-3293.8,-3079.5,-2783.8,-2419.2,-1977.6,-1484.8,-978.83,-467.55,34.841,499.74,916.92,1277.5,1571.5,1809.5,1996.5,2122.9,2196.2,2236.5,2254.1,2252.9,2238.7,2220.5,2208.2,2203,2196.9,2194.9,2208,2218.8,2210.8,2196.8,2169.7,2119.2,2077.5,2047.4,2002.3,1964,1949.5,1939.6,1941,1957.1,1967.9,1975.2,1980.5,1983,1998.2,2009.4,1990.8,1960.3,1926.5,1877.1,1821.2,1759.4,1674.3,1573.7,1471.8,1362.2,1245.6,1131.6,1014.8,893.91,776.3,655.83,540.24,451.23,368.24,265.98,167.5,85.428,9.177,-57.149,-123.47,-201.67,-273.38,-334.29,-396.69,-462.7,-537.69,-608.63,-659.06,-717.22,-792.56,-856.36,-923.35,-1009.2,-1081.7,-1143.6,-1224,-1307.7,-1381.8,-1462.7,-1548.1,-1628.3,-1714.1,-1809,-1893.3,-1966.5,-2056.1,-2157,-2239.5,-2324.9,-2437.7,-2542,-2625.5,-2724.7,-2833.7,-2927.9,-3028.6,-3151.4,-3271.2,-3373.4,-3473.4,-3582.1,-3684.8,-3760.3,-3794.3,-3759.4,-3622.6,-3390.9,-3082.7,-2684.5,-2207.8,-1704.6,-1187.3,-650.48,-133.8,336.69,765.54,1137.5,1447.1,1701.5,1883.4,1998.4,2079.4,2126.9,2137.8,2131.3,2113.9,2089.4,2070.5,2061.1,2058.7,2060.2,2061.9,2061.5,2060,2063.9,2061.6,2029,1979.4,1937.6,1906,1893.8,1889.2,1869.7,1867.6,1889.6,1893.5,1904.7,1944,1959.8,1960.5,1978,1973.2,1947.2,1933.1,1898.5,1834.3,1778.6,1719.1,1628.1,1522.1,1417.9,1306,1182.4,1066.1,958.19,836.5,716.93,626.79,542.16,444.36,348.65,258.8,176.84,104.94,32.732,-32.144,-81.754,-135.92,-202.14,-266.14,-320.43,-369.59,-425.89,-489.92,-550.01,-607.13,-661.74,-713.11,-778.65,-854.41,-913.44,-968.67,-1043,-1114.7,-1173.3,-1247.1,-1335.9,-1414.5,-1492.9,-1585,-1669.8,-1746.6,-1841.4,-1947.4,-2048.5,-2153.7,-2260.1,-2359.2,-2467,-2584.7,-2691.4,-2788.9,-2891.1,-2990.8,-3070.8,-3109.6,-3080.3,-2967.5,-2765.8,-2470.1,-2088.9,-1639.8,-1140.4,-624.44,-122.61,366.58,838.82,1260.4,1610.2,1901.1,2141.4,2306.4,2390.2,2446.4,2493.4,2487,2438,2390,2331,2263.8,2215.9,2169,2119.5,2093,2067.2,2016.6,1956.7,1892.8,1823.4,1761.3,1712,1673.2,1644.7,1630,1635.3,1656.9,1679.9,1693,1704,1732.4,1766.8,1777.9,1774.6,1772.1,1754,1715,1665.1,1602.3,1527.1,1439.9,1335,1223.6,1111.6,983.81,845.94,719.55,600.01,477.44,358.7,243.59,131.5,33.651,-55.761,-147.84,-227.66,-292.17,-362.98,-439.46,-507.69,-570.27,-634.59,-705.98,-777.98,-836.57,-891.44,-955.84,-1024,-1094.4,-1160.5,-1220,-1295.8,-1378.4,-1437.8,-1499.5,-1582.5,-1657,-1725.6,-1811.4,-1902.2,-1984.6,-2064.2,-2149.8,-2239.9,-2320.4,-2400.6,-2503.3,-2614.8,-2716.8,-2816.6,-2918.7,-3027.6,-3143.6,-3254.2,-3370,-3505.2,-3631.9,-3731.4,-3820.1,-3888.2,-3889.5,-3792.9,-3592.2,-3288.8,-2892,-2419.6,-1888,-1314.3,-728.27,-165.15,360.65,851.89,1289.2,1645.1,1929.2,2150.8,2296.6,2385.9,2444.1,2460.2,2445.4,2426.3,2395.3,2358.2,2333.5,2309.1,2288.6,2289,2292.2,2283.9,2270.8,2245.7,2206.4,2161.4,2108.9,2056.4,2019.5,1992.5,1970.5,1964.6,1971.6,1980.6,1991.2,1996.7,2002.2,2026.2,2039.2,2014.5,1996.2,1989.8,1945.9,1886,1836.6,1761,1665.7,1576.2,1468.3,1342.9,1218.8,1089.6,963.67,837.72,702.18,585.45,475.22,342.54,233.77,153.22,49.792,-43.083,-105.82,-192.63,-280.73,-328.82,-383.15,-456.39,-518.57,-587.41,-663.74,-718.13,-768.21,-840.15,-920.25,-992.62,-1057.6,-1124,-1202.8,-1286.4,-1353.4,-1409.5,-1483.7,-1574.9,-1656.5,-1730.6,-1810.8,-1893.9,-1984.9,-2088.5,-2188.3,-2281,-2379.3,-2481.9,-2582,-2683.3,-2797.4,-2924.7,-3043.9,-3147.1,-3254,-3370.1,-3483.8,-3584.6,-3650.8,-3663.3,-3618.3,-3490,-3240.4,-2877.8,-2441.7,-1951.4,-1412.8,-849.96,-299.6,216.32,696.18,1129.1,1488.5,1774.4,2004.8,2171.7,2274.3,2335.6,2359.2,2348.9,2319.9,2269.8,2215.3,2174.3,2120.2,2066.9,2052.6,2034.9,1994.4,1971.4,1937.2,1870.8,1824.3,1785.1,1720.6,1677.6,1666.9,1652,1649.8,1675.4,1699.9,1718,1745.1,1775.3,1794.6,1806.4,1820.7,1828.7,1817.2,1791.7,1753.1,1694.8,1630.1,1558.9,1460.7,1350.2,1249.1,1136.6,1009.9,892.29,769.92,636.81,523.9,427.34,320.23,212,120.92,44.792,-29.831,-112.62,-192.45,-258.12,-317.95,-376.56,-435.94,-500.22,-558.39,-605.59,-656.15,-712.98,-766.38,-813.06,-858.32,-914.33,-983.97,-1048.9,-1100.6,-1162,-1242.7,-1316.3,-1379.1,-1454.5,-1534.2,-1609.1,-1696.7,-1793.2,-1888.7,-1990,-2094.1,-2209.2,-2340.9,-2462.4,-2575.6,-2697.4,-2806.2,-2900.8,-2989.1,-3031.2,-2999.8,-2889.2,-2681.5,-2382.1,-1997.1,-1526.9,-1021.8,-517.56,4.3803,520.94,979.66,1379.4,1729.7,2015.1,2234,2396.5,2493.5,2524.5,2526,2516.5,2463.6,2369.9,2290.4,2228.5,2148.8,2069.1,2014.2,1959.9,1890.8,1819.4,1747.8,1675.3,1604.2,1534.1,1472.9,1428.4,1402.6,1399.9,1413.3,1433,1461.5,1489.4,1508.8,1536.3,1566.6,1576.8,1573.1,1562.2,1534.2,1492.8,1442.2,1377.1,1303.5,1221,1114.4,993.05,877.41,752.3,607.2,470.39,344.58,211.21,90.022,-17.067,-138.8,-252.85,-338.46,-431.52,-534.1,-614.84,-684.64,-761.52,-836.4,-904.33,-971.68,-1038.3,-1098.4,-1163.1,-1239.3,-1300.8,-1350,-1419.7,-1488.6,-1540.8,-1609.3,-1684.4,-1747.9,-1822.1,-1895.4,-1959.2,-2044.9,-2139,-2225.7,-2328.6,-2430.6,-2515.8,-2615.3,-2724.3,-2829.2,-2955.7,-3093,-3209.9,-3325.9,-3453.9,-3573.8,-3688.8,-3801.7,-3877.7,-3887,-3816.6,-3641.8,-3356.4,-2983.3,-2523.4,-1975.9,-1386.6,-800.52,-229.6,311.83,804.72,1240.4,1611.8,1915.4,2148.7,2306,2395.7,2441.2,2457.7,2447.2,2411.1,2358.9,2306.7,2265.1,2231.4,2200.8,2173,2146.4,2119.5,2091.4,2054.1,2006.6,1958.9,1910.6,1863.4,1828.4,1801.3,1788.5,1803.4,1814,1802.1,1806.9,1830.2,1844.3,1857.7,1865.6,1852.6,1828.4,1792.2,1751.6,1719.4,1660.2,1562.3,1463,1358.4,1239.5,1127.4,1011.6,881.5,751.15,617.79,483.89,359.69,240.35,129.01,21.252,-90.737,-183.25,-258.61,-350.01,-440.42,-507.04,-576.6,-657.46,-726.72,-784.8,-846.26,-910.14,-970.85,-1033.3,-1101.8,-1171,-1238.7,-1304.3,-1364.3,-1426.8,-1499.8,-1574.6,-1649.4,-1735.1,-1829.6,-1922,-2017.4,-2127.1,-2241.6,-2345.4,-2448.5,-2562.1,-2677.9,-2802.8,-2945.2,-3077,-3189,-3313.1,-3438.2,-3526.7,-3592.3,-3625.4,-3552.5,-3356,-3074.9,-2708,-2259.1,-1761.4,-1220.4,-657.44,-122.61,376.7,843.82,1252.8,1590,1857.2,2063.9,2219.4,2306.3,2333.5,2347.8,2345.7,2308.1,2266,2227.1,2171.3,2121.1,2096.8,2076.8,2046.3,2014.1,1981.8,1932.6,1862.9,1799.8,1754.2,1710.4,1675.4,1664.1,1662.2,1660.5,1672.7,1697.3,1717.3,1731.9,1749.1,1764.3,1771.3,1767.7,1743.3,1703.2,1669.6,1629.3,1553.1,1461.5,1377.2,1274.9,1148,1025.9,913,793.89,659.74,515.17,393.87,306.88,207.62,89.068,-2.6633,-74.264,-155.64,-231.89,-297.56,-368.89,-439.51,-498.19,-549.72,-603.89,-660.83,-710.63,-760.52,-820.17,-872.18,-916.68,-975.41,-1040.9,-1101.7,-1162.9,-1226.6,-1302.4,-1385.6,-1457.5,-1542.6,-1655.7,-1758.1,-1849.3,-1958.2,-2073.8,-2195.7,-2332.5,-2454,-2558.5,-2678.3,-2796,-2880.3,-2936.8,-2952.3,-2880.7,-2702.8,-2436.2,-2094.5,-1676.7,-1208,-732.29,-254.81,228.31,679.14,1075.4,1424,1702.6,1908,2081.1,2208.2,2253.1,2255,2245.5,2201.1,2132.3,2065.3,1996.3,1931.5,1868.1,1785.8,1704.8,1638.2,1559.7,1472.2,1386.8,1298.5,1236.8,1208.7,1180.2,1168.3,1191.4,1212,1233.4,1283,1331,1359.5,1389.6,1419.8,1436.3,1438,1421.9,1387.5,1339.5,1279.3,1204.1,1112.4,1013.9,911.1,794.85,672.39,549.17,419.94,303.85,202.39,79.357,-52.557,-156.38,-252.21,-349.9,-426.18,-498.99,-584.15,-657.13,-720.78,-787.22,-838.64,-882.03,-938.03,-992.33,-1039,-1090.4,-1138.7,-1182.1,-1233.9,-1290.4,-1350.3,-1421.1,-1494.8,-1568.4,-1647.4,-1725.5,-1807.2,-1906.2,-2015,-2124,-2234.6,-2345.7,-2464.8,-2595.4,-2720.5,-2834.8,-2946.2,-3041.5,-3098.4,-3101.2,-3025,-2847.1,-2572.3,-2217.1,-1786.7,-1295,-781.31,-275.52,212.92,663.55,1062.2,1417.6,1718.9,1947.1,2118.2,2243.1,2309.9,2329.3,2319.4,2278.2,2220,2168.6,2118.1,2061.4,2014.3,1980.5,1936.7,1873.9,1815.8,1766.9,1695.8,1610.1,1547.9,1501.5,1458.7,1436.5,1426.5,1425.2,1448.1,1469.4,1478.9,1506.4,1531.9,1530.8,1529.5,1524.5,1497.9,1463.8,1413.8,1337.1,1255.6,1172.6,1076.2,965.4,837.4,704.66,579.68,446.88,311.3,194.81,78.368,-52.287,-166.84,-260.84,-364.39,-468.98,-552.72,-636.35,-725.57,-791.7,-848.54,-925.98,-1002,-1061.9,-1128.3,-1195.7,-1244.2,-1290.7,-1354.2,-1423.8,-1485.3,-1540.2,-1604.8,-1690.6,-1776.8,-1841,-1905,-1989.7,-2083.8,-2188.7,-2303.5,-2401.4,-2491.7,-2604.7,-2726.1,-2845,-2974.9,-3103.3,-3220.5,-3340.2,-3454.8,-3548.7,-3615.2,-3627,-3549.6,-3365.9,-3073.5,-2685.3,-2221.6,-1702.7,-1157.5,-611.17,-73.024,443.04,913.06,1316.9,1648.5,1920.2,2139.1,2290.8,2381.7,2440.4,2468.9,2465.6,2451.8,2429.6,2399.5,2383.5,2372.8,2353.1,2350.5,2360.2,2345.3,2312,2269.9,2208.5,2144,2086.6,2027.1,1978.6,1944.2,1912.1,1897.1,1895.6,1882.3,1874.1,1879.5,1867.4,1850.5,1854,1844.3,1801.2,1749.4,1688.8,1608.1,1520.7,1434.4,1344.9,1244.5,1121.9,984.98,855.86,732.96,602.8,472.88,353.54,232.91,107.71,1.3954,-86.658,-183.2,-280.39,-362.24,-445.5,-530.76,-605.81,-682.95,-755.95,-809.69,-868.53,-940.94,-1005.6,-1072.3,-1147.5,-1211.6,-1273.2,-1342.6,-1406.5,-1477.1,-1561.6,-1635.1,-1704.5,-1791.4,-1883.9,-1980.3,-2084.4,-2184.8,-2294.5,-2419.7,-2536.4,-2653.1,-2785.9,-2914.3,-3037.8,-3168.2,-3287.1,-3387.6,-3469.6,-3510.7,-3493.4,-3390.9,-3172.1,-2855.3,-2461.1,-1981.6,-1456.1,-931.12,-394.96,135.03,610.23,1034.2,1400.9,1685.3,1922.6,2123.8,2243.2,2305.5,2353.7,2360.2,2331.1,2310.7,2291.2,2264.1,2246.6,2232.9,2217.9,2207.3,2189.8,2151.1,2091.5,2027.9,1973.3,1913.1,1844.2,1789.7,1750.3,1713.7,1688.1,1679.8,1683.7,1697.2,1715.1,1723.8,1716,1706.2,1704.2,1688.4,1649.4,1604.8,1551,1482.3,1412.2,1328.2,1215,1097.1,983.35,857.8,727.59,602.38,483.8,378.71,272.87,161.2,72.95,-4.1592,-105,-204.2,-278.66,-347,-413.05,-481.13,-554.95,-614.02,-668.94,-734.24,-783.59,-830.72,-899.89,-956.61,-1005.3,-1077.8,-1144,-1198.4,-1270,-1343,-1419.9,-1518.3,-1612.1,-1707.7,-1824.2,-1930.3,-2031.5,-2152.6,-2268.6,-2386.5,-2524.2,-2644,-2747.3,-2854.6,-2928.7,-2963.4,-2968.5,-2891.7,-2712.4,-2449.2,-2086.2,-1643.4,-1168.8,-661.47,-140.52,348.55,805.75,1221.1,1564.2,1847.3,2078.8,2243.6,2354.3,2423.2,2444.4,2433.9,2413.2,2382.9,2339.4,2290.6,2251.3,2222,2190,2153.1,2106.6,2041.6,1968.3,1892.7,1808.1,1726.8,1660.1,1602.2,1562.5,1548,1540.1,1532.3,1536.8,1550.1,1560,1566.3,1570,1561.7,1536.8,1502.9,1460.9,1404.6,1337.3,1260.6,1164.8,1052.6,937.07,807.75,657.63,521.37,407.89,277.01,138.93,27.898,-84.483,-205.48,-301.77,-391.86,-489.29,-572.85,-658.07,-745.09,-811.18,-882.84,-964.05,-1024.5,-1085.6,-1159.9,-1222.3,-1278.7,-1340.1,-1405.5,-1476.3,-1535.6,-1590.4,-1670,-1754.4,-1825.4,-1902.6,-1981.8,-2056.7,-2142,-2235.7,-2333.9,-2439.1,-2544.6,-2653.5,-2766.9,-2876.8,-2994.8,-3127.7,-3258,-3379.6,-3493.9,-3596.6,-3690.6,-3761.4,-3771.7,-3707.3,-3561,-3300.3,-2918.3,-2454.3,-1935.5,-1373.4,-794.67,-227.88,304.75,788.88,1223.1,1592.1,1879.2,2106.3,2289.3,2414.9,2491.9,2537.8,2546.9,2534.6,2532.8,2534.3,2518.9,2505.7,2521.4,2547.2,2549.8,2534,2515,2475.7,2409.5,2343.8,2284.7,2214.6,2150.6,2113.8,2078.4,2034.2,2009.8,2003.2,1993,1980.6,1967.6,1956.8,1953.1,1935.7,1894.3,1849.3,1800,1732.7,1655.2,1571.7,1473.5,1358.6,1236.5,1120.5,1004.8,870.48,730.47,610.23,501.32,384.8,259.38,137.85,40.848,-35.709,-123.69,-224.47,-313.28,-391.94,-469.01,-540.62,-616.04,-696.58,-762.49,-821.19,-897.67,-979.12,-1041.5,-1094.5,-1153.3,-1215.9,-1285.6,-1366.9,-1450.8,-1530,-1603.8,-1677.9,-1763.1,-1851.1,-1930,-2019.5,-2127.1,-2229.4,-2326.8,-2436.8,-2557.7,-2681.4,-2802.1,-2924,-3057.5,-3185.2,-3296.1,-3409.1,-3514.8,-3584.1,-3609,-3559.4,-3394.8,-3123.5,-2767.5,-2332.9,-1839.9,-1313.8,-765.11,-208.98,322.22,797.83,1207.3,1555.6,1846.6,2076.1,2240.7,2346.9,2407.4,2434,2438.9,2428.6,2400.1,2357.8,2318.3,2296.5,2290.8,2282.5,2260.7,2232.3,2198.4,2147.4,2074.4,1991.4,1917.2,1857.4,1807.3,1768.7,1740.6,1718.9,1710.7,1715.5,1720.3,1727.9,1746.3,1764.9,1773.1,1773.5,1760.4,1717.8,1654,1592.9,1528.1,1448,1363.8,1268.2,1151.2,1033.9,914.97,779.99,650.49,530.67,405.91,294.17,195.48,89.459,-5.173,-83.158,-169.31,-250.8,-318.07,-396.51,-473.88,-527.03,-587.76,-670.71,-737.93,-787.42,-852.7,-922.96,-974.63,-1025.5,-1087.5,-1149.9,-1217.2,-1287.5,-1347.1,-1410.8,-1491.2,-1572,-1654.3,-1751.4,-1853.4,-1954.1,-2062.4,-2181.9,-2308,-2432.2,-2560.2,-2702,-2834.8,-2943.1,-3050.8,-3155.9,-3228.9,-3257.7,-3212.7,-3060.6,-2810.8,-2469.6,-2036.8,-1543.9,-1017.4,-473.6,56.67,556.3,1012.4,1405.6,1740.1,2013.4,2212.3,2357.5,2459.7,2502.9,2507.3,2492.7,2452.2,2408.6,2374.4,2327.2,2285.4,2269.1,2244.1,2202.9,2162.8,2101.2,2017.3,1945.5,1881.2,1812.7,1756.5,1714.6,1686.2,1679.9,1684,1688.8,1700.8,1713.7,1722.5,1732.2,1740.3,1741.7,1731.5,1705.5,1662.4,1597.9,1521,1445.3,1353.1,1237.8,1124.3,1006.3,868.71,730.12,594.4,456.4,329.54,208.33,84.438,-27.456,-130.14,-234.74,-334.18,-428.22,-517.06,-594.64,-671.97,-750.79,-815.18,-877.76,-955.14,-1025.5,-1080,-1145.1,-1224.7,-1298.8,-1366.4,-1433.9,-1497.8,-1561,-1632.2,-1710.7,-1788,-1862,-1938.7,-2016.9,-2096.3,-2183.3,-2274.3,-2371.6,-2486.3,-2595.6,-2687,-2796.6,-2921.4,-3027.8,-3143.1,-3283.2,-3408.3,-3522,-3654.4,-3785.6,-3893.7,-3979.5,-4027.9,-4013.1,-3913.3,-3711.6,-3398.8,-2974,-2457.3,-1886.2,-1288.5,-686.36,-102.43,451.61,958.06,1392.4,1759,2070.3,2309.2,2467.2,2569.7,2638.9,2674.4,2676.3,2661.8,2648.1,2633.6,2620.5,2620.1,2625,2630.1,2641.1,2646.1,2640.6,2624,2574.7,2512.8,2473.3,2420.6,2349.6,2316.2,2301.7,2270.6,2253.2,2245.7,2230.6,2237.6,2252.6,2240.2,2221.3,2200.5,2160.7,2122.6,2086.9,2026.1,1948.7,1864.5,1763.6,1655.6,1544.5,1414.4,1273.9,1143.5,1018.5,887.9,753.64,624.7,503.27,382.36,271.68,184.23,96.592,-6.3338,-99.015,-176.77,-257.25,-335.33,-409.64,-488.5,-561.57,-626.77,-699.45,-777.57,-849.34,-919.49,-1000.2,-1090,-1174.4,-1247.3,-1318.3,-1397,-1484.2,-1574.7,-1664.6,-1751.1,-1832.3,-1918.7,-2016.4,-2110.1,-2205.1,-2321.5,-2437.4,-2531,-2625.4,-2728.4,-2829.7,-2946.9,-3082.9,-3208.6,-3321.2,-3439.1,-3562.8,-3686.6,-3811.4,-3935.2,-4045.5,-4119.6,-4137.9,-4086.7,-3940.6,-3679.7,-3313,-2851.7,-2311.3,-1730.7,-1133.1,-531.16,37.462,563.49,1054.4,1469.5,1800,2081.6,2287.1,2405.4,2504.7,2584.7,2601.3,2590.2,2577.7,2552.9,2543.9,2549.8,2537.4,2538.4,2577.2,2607.8,2613.3,2608.5,2576.7,2520.9,2476.2,2438.4,2385.2,2335.9,2313.3,2305.1,2297.5,2292.1,2289.3,2286.8,2284.9,2288.7,2296.6,2295.9,2285.5,2269.5,2238.5,2193.5,2140.7,2068.4,1980,1889.2,1785.9,1672.9,1562.2,1437.7,1299.9,1167,1031.9,901.65,790.67,679.62,567.71,470.37,370.38,270.73,197.1,130.69,47.627,-37.661,-114.82,-191.98,-270.16,-335.97,-389.99,-456.09,-529.5,-590.58,-661.1,-739.17,-793.58,-859.66,-954.16,-1016.6,-1061.9,-1146.8,-1233,-1299.7,-1386.6,-1476.1,-1546.1,-1621.3,-1701.7,-1789.7,-1900.3,-2005.6,-2097.7,-2206.7,-2319.4,-2423.3,-2541.3,-2664.4,-2779.9,-2909.2,-3044.7,-3163.9,-3277.9,-3383.7,-3450.2,-3460.6,-3402.2,-3255.2,-3011.7,-2671.1,-2248.8,-1781.7,-1282,-742.64,-200.66,297.21,750.9,1155.2,1490.5,1777.3,2023.5,2190.2,2282.9,2346.1,2379.6,2375.5,2356.1,2324.3,2277.2,2232,2188.5,2141.7,2107.7,2082.2,2044.7,1999.6,1947.2,1874.1,1795.4,1735.8,1690.1,1649,1622.1,1617,1624.5,1629.3,1637.5,1668.1,1703.3,1715.7,1731,1764,1774.2,1755.2,1738.8,1717.6,1679.1,1629.9,1560.8,1476.2,1389.5,1283.6,1161.7,1050.7,939.95,818.65,701.35,583.97,467.53,362.62,253.71,142.89,47.385,-49.287,-143.73,-216.87,-296.63,-382.56,-435.76,-482.36,-552.36,-619.95,-683.87,-744.33,-783.85,-841.02,-932.24,-1000.9,-1045.9,-1105,-1164.6,-1221.2,-1289.1,-1358.1,-1431.2,-1509.3,-1580.7,-1659.4,-1750.1,-1843.2,-1948.1,-2051.7,-2144.9,-2254.3,-2369.1,-2475.6,-2603,-2736.4,-2847.5,-2960.7,-3074.4,-3165.5,-3234.7,-3248.9,-3167.6,-2994.5,-2732.6,-2391.1,-1994.2,-1546.4,-1071.1,-609.53,-160.28,280.88,684.49,1037,1343.8,1597.7,1790.7,1931.1,2030,2083.3,2095.9,2095.5,2083,2040.7,1994.5,1967.3,1936.2,1897.2,1867.9,1841.3,1811,1775.5,1720.5,1652.6,1594,1545.3,1503.2,1475.8,1463.3,1458.9,1459,1465.2,1478.4,1495.8,1518.6,1543.4,1556.1,1558.1,1558.9,1550.1,1527.1,1494.4,1446,1383.7,1318.1,1244.9,1156,1051.2,936.57,828.7,731.82,621.38,491.52,377.75,287.88,183.64,70.197,-13.602,-92.055,-194.02,-284.46,-359.52,-447.26,-523.7,-581.37,-655.96,-738.79,-810,-881.91,-949.43,-1010.1,-1079.8,-1147.4,-1206.4,-1271.3,-1334.5,-1392.6,-1460.9,-1534.9,-1607.7,-1682.8,-1759.2,-1843.3,-1926.4,-1991,-2064.6,-2168.5,-2267.8,-2350,-2436.5,-2528.1,-2626.6,-2738.2,-2851.2,-2966.1,-3093.9,-3219.1,-3322.1,-3416.6,-3513.7,-3573.6,-3561.3,-3486.4,-3329.5,-3064.5,-2731.6,-2345.2,-1882.9,-1399.9,-938.46,-464.96,-5.5708,391.88,751.04,1069.4,1319.8,1523.9,1686.9,1793.1,1856.4,1884.5,1887.8,1893.3,1891.1,1866.4,1846.9,1844.8,1845,1846.9,1850.7,1845,1830,1809.6,1776.9,1737.9,1711.2,1685.4,1644.4,1615.4,1613,1610,1602,1606.1,1620.9,1637,1644.6,1647.3,1662.2,1678,1672.9,1654.9,1632.5,1600.7,1550.8,1480.5,1413,1349.7,1258.1,1157.3,1077.1,981.17,859.11,750.43,653.33,549.05,447.45,353.9,261.59,167.77,79.446,4.7465,-65.052,-138.76,-209.71,-274.32,-338.09,-406.65,-471.48,-523.94,-587.26,-664.49,-719.2,-768.15,-841.26,-899.29,-940.29,-1013.6,-1096,-1147.7,-1195.4,-1262.8,-1340.6,-1420,-1499,-1581,-1663.6,-1747.7,-1846.9,-1957.6,-2065,-2169.8,-2271.3,-2377.2,-2504.7,-2634.6,-2738.3,-2829.4,-2914.2,-2960.4,-2948.3,-2875.4,-2722.6,-2477.5,-2163.3,-1804.1,-1410.9,-1000.6,-583.94,-168.54,220.38,566.1,869.69,1122.8,1319.4,1470.3,1588.3,1671.4,1704.8,1706.5,1716.4,1712.8,1671.4,1638.7,1619.2,1575.5,1535.4,1509.2,1464,1423.9,1394.3,1335,1269.9,1221,1164.8,1128.4,1124.1,1108.9,1097.8,1119.9,1144.7,1164.1,1194,1222.5,1245.1,1266.6,1280.9,1285.3,1280.8,1269.2,1249.6,1214.3,1164,1101.7,1027.2,945.56,853.8,755.79,669.93,581.17,470.31,363.6,273.19,182.62,91.235,-2.058,-91.743,-160.26,-224.85,-304.02,-376.73,-437.64,-501.83,-565.68,-622.74,-674.49,-728.41,-789.51,-840.62,-880.19,-933.37,-989.56,-1032.9,-1087.7,-1153.8,-1215,-1287,-1361.2,-1419.7,-1491.6,-1582.9,-1667.8,-1758,-1866.2,-1980.8,-2094.1,-2191.1,-2280.5,-2395.1,-2516.1,-2608.4,-2678.3,-2720.5,-2708.6,-2624.2,-2455.2,-2210.6,-1901.9,-1530,-1126.4,-728.11,-337.86,42.801,412.53,761.12,1050.5,1278.6,1471.3,1613.3,1704.5,1776.8,1814.6,1800.3,1772.4,1753.9,1727.5,1689.1,1650.3,1606.5,1553.1,1512.6,1487.5,1440,1372.2,1315.7,1257.1,1193.8,1157.1,1134.3,1107.6,1096.3,1096.9,1101.9,1128.2,1164.8,1188.7,1205.5,1221.7,1233.8,1234.1,1219.4,1198.3,1162.5,1102.1,1042.9,985.79,901.32,801.35,703.18,597.67,491.54,382.6,262.48,154.39,54.32,-60.21,-164.21,-254.32,-358.33,-453.46,-528.52,-613.46,-694.93,-759.51,-831.26,-902.47,-967.17,-1044.3,-1114.4,-1168.5,-1233.3,-1296.7,-1354.4,-1427.2,-1489,-1532.5,-1596.3,-1670.7,-1742.5,-1829.2,-1913.5,-1992.3,-2085.7,-2173.1,-2258.1,-2364.5,-2468.6,-2572,-2697.1,-2818.8,-2934.4,-3061,-3176.1,-3273.8,-3362.8,-3422,-3429.9,-3358,-3187.4,-2937.1,-2607.5,-2199.8,-1759.1,-1298.8,-813.07,-338.41,109.43,531.35,894.4,1195.7,1457.2,1659.4,1793.9,1889.6,1958.9,2004,2026.2,2018.8,1999.3,1995.1,1996.6,1990.2,1984.4,1980.6,1976,1971.9,1953.7,1912.7,1865.5,1821.6,1775,1732.2,1704.9,1685.3,1664.8,1653.9,1655.2,1655.4,1660.1,1678.5,1694.6,1702.4,1705.9,1694.5,1674.1,1653.6,1613.2,1553.2,1490.8,1410.4,1309.1,1212.2,1113.2,995.15,875.99,770.75,663.87,542.43,421.18,310.81,193.19,74.08,-10.384,-78.304,-173.36,-270.71,-338.07,-401.27,-475.07,-545.55,-613.91,-679,-737.31,-801.91,-867.41,-921.02,-983.82,-1061.6,-1125.6,-1181.5,-1254.4,-1331.1,-1401.7,-1487.5,-1585.6,-1673.5,-1760.3,-1864.3,-1974.4,-2078.3,-2184.8,-2299.4,-2412.4,-2518,-2630,-2756.8,-2871.3,-2948.6,-2991.9,-2976.8,-2864.2,-2667.2,-2400.9,-2049.2,-1635.1,-1197.2,-736.79,-266.76,185.03,608.78,984.14,1292.5,1547.5,1754.9,1905.8,2007.8,2066,2078,2065,2049.9,2026.1,1990.6,1960.4,1936,1911.6,1894.7,1873.4,1830.9,1778.3,1721.3,1658.9,1602.3,1544.5,1485.7,1452,1432.7,1411.1,1412.1,1431.1,1442.7,1456.4,1474.2,1491.3,1515.4,1519.9,1493.5,1476.1,1464.5,1428,1378.1,1315.1,1226.7,1132.4,1038.1,933.97,827.61,716.5,597.44,483.39,373.65,268.35,172.88,76.744,-10.927,-76.21,-144.31,-220.99,-286.69,-355.46,-427.86,-480.76,-529.84,-586.72,-640.21,-705.11,-772.19,-808.48,-841.36,-896.39,-946.63,-1000,-1076,-1142.5,-1194.3,-1267,-1357.7,-1445.5,-1533.9,-1628.2,-1725.6,-1823.7,-1926.8,-2041.9,-2155.3,-2252.2,-2348.6,-2451.5,-2537.2,-2591.6,-2606.5,-2554,-2414.3,-2192.1,-1895.5,-1535.2,-1126.6,-678.57,-209.68,242.57,658.36,1040.9,1381.3,1661.3,1873.1,2022.3,2124.6,2188.9,2213.3,2205.2,2174.9,2127.6,2074,2017.6,1960,1912.6,1869.9,1815.2,1750,1676,1589.9,1500.2,1418,1351.8,1301.4,1258.5,1226,1208.2,1203.1,1214.6,1233.2,1247.4,1268.6,1296.8,1313.5,1308.7,1281.5,1254,1237.3,1193.3,1115.1,1036.4,947.22,839.07,732.26,616.69,491.54,377.54,258.83,130.76,17.426,-90.913,-205.42,-311.04,-407.22,-495.88,-573.17,-650.81,-731.96,-804.47,-867.4,-926.62,-988.92,-1062.3,-1135,-1185,-1222.2,-1271.8,-1324.1,-1368.5,-1427.7,-1498.7,-1555.3,-1612.3,-1688.4,-1767.7,-1842.5,-1917,-1997.5,-2093.7,-2191,-2277,-2377.2,-2498.4,-2613.5,-2719.1,-2832,-2953.7,-3064.9,-3153.6,-3231.2,-3285.1,-3271.8,-3176.7,-2993.6,-2702.8,-2321.4,-1879.9,-1386.1,-869.81,-365.1,128.02,598.18,1017.8,1382.5,1688.5,1914.9
