-814.42,-883.07,-968.81,-1062.4,-1144.3,-1223.4,-1299.4,-1384,-1485,-1570.2,-1639.3,-1719.5,-1797.7,-1872.4,-1955.9,-2028.6,-2096.5,-2177.4,-2250.2,-2320.3,-2406.5,-2486.4,-2559.3,-2639.4,-2716.1,-2796.7,-2878.8,-2942.7,-3012.2,-3094.7,-3164.6,-3240,-3323.3,-3386.2,-3442.6,-3480.7,-3460.1,-3397.7,-3287.1,-3088.7,-2832.4,-2541.4,-2190.7,-1804.3,-1417.2,-1022.7,-634.81,-280.01,42.964,338.71,600.69,820.23,1002.9,1161.6,1286.6,1379.6,1473.6,1567.6,1640.3,1714.5,1812.6,1909.1,1981.4,2047.1,2121,2174.2,2183.2,2168.9,2138.7,2084.2,2029.7,1980.3,1916,1863,1841.3,1821.8,1803.3,1807.8,1827,1850.7,1876.9,1898.3,1916.9,1933.1,1940.4,1942.9,1938.4,1914.1,1872.6,1827.8,1778.7,1714.3,1639,1564.7,1485.1,1395.7,1308.1,1223.9,1136.7,1049.2,961.05,870.1,784.85,709.93,634.9,552.73,475.99,408.01,331.56,254.66,192.39,123.23,45.06,-18.177,-78.27,-143.9,-201.55,-264.04,-337.64,-407.03,-473.59,-536.39,-596.99,-669.32,-743.07,-813.91,-892.06,-959.54,-1025.2,-1121,-1216.2,-1286.8,-1362.9,-1446.8,-1529.9,-1622.8,-1711.4,-1789.1,-1872.8,-1953.7,-2027.9,-2114.4,-2207.8,-2290.9,-2371.5,-2461.3,-2553.1,-2636.8,-2722.6,-2817,-2907.1,-2994.7,-3086.4,-3176.9,-3277.8,-3383.7,-3463.1,-3539.3,-3641.6,-3730,-3795.5,-3873.2,-3934.4,-3943,-3912.8,-3828.1,-3662.6,-3432,-3140.5,-2787.9,-2405.7,-2007.1,-1591.4,-1180.8,-785.59,-406.35,-61.852,245.16,523.65,762.75,961.92,1132.3,1273,1399.8,1533.8,1659,1765.9,1879.5,2006.6,2129,2244.2,2356,2454.2,2528.6,2572.6,2581.8,2566.4,2539.8,2498.5,2443.4,2394,2358.3,2327.7,2302,2286,2278,2280.2,2296.7,2320.2,2338.5,2354.3,2372.1,2380.6,2379.2,2382.2,2374,2333.3,2281.8,2232.9,2166.7,2084,1997.4,1904.3,1806.7,1707.9,1609.1,1511,1402.6,1291.7,1197.4,1099.4,987.69,887.88,792.65,690.61,600.53,514.34,417.21,322.31,233.21,148.49,65.918,-24.925,-109.45,-181.85,-268.22,-357.67,-430.49,-508.13,-589.8,-663.46,-747.76,-839.08,-924.89,-1016.6,-1104.6,-1186.3,-1286.7,-1391.1,-1478.6,-1572.3,-1673.2,-1765.2,-1864,-1973,-2074.4,-2170.7,-2271.6,-2379.5,-2490,-2587.2,-2673.2,-2770.9,-2880.5,-2985.5,-3083.9,-3182.4,-3288.3,-3403.8,-3521.1,-3632.9,-3737.2,-3835.3,-3935.4,-4040.5,-4138.6,-4227.9,-4317.8,-4393.6,-4426.4,-4407,-4328.3,-4171.3,-3930.6,-3623.3,-3266.9,-2867,-2424.9,-1955.8,-1481.9,-1014.6,-564.13,-144.86,234.19,568.3,858.37,1108,1321.4,1514.9,1691.6,1833.4,1960.2,2102.9,2239,2362.9,2506.7,2656.4,2789,2913.8,3016,3082.8,3127,3136.6,3109.8,3069.9,3012.6,2948.7,2906.3,2860.8,2805,2776.1,2763.3,2749.2,2753.1,2758.8,2758.2,2780.4,2803.6,2799.5,2792.9,2781.7,2748.4,2709.6,2660,2587,2509.4,2425.7,2325.5,2220.8,2109.8,1994.6,1890,1778.7,1651,1536.7,1438.2,1330.8,1214.1,1101.3,995.96,891.74,790.5,706.73,623.91,514.76,409.25,336.16,264.28,177.18,90.38,1.5225,-82.778,-146.65,-212.35,-300.73,-390.94,-467.66,-539.58,-613.62,-695.26,-780.77,-857.72,-938.34,-1034.3,-1123.5,-1204.5,-1295.5,-1381.8,-1464.5,-1566.4,-1662.3,-1738.8,-1834.6,-1947.2,-2048,-2146,-2245.5,-2342.5,-2450.6,-2565,-2672.7,-2776.7,-2878.1,-2982,-3090.2,-3186.9,-3274.9,-3366.4,-3445.9,-3498.4,-3513.8,-3462.8,-3330.6,-3128.4,-2854.3,-2503.7,-2094.1,-1644.1,-1161.7,-662.41,-172.89,291.73,727.43,1124.7,1477.2,1784.4,2040.3,2248.1,2421.2,2559.7,2670.2,2771.1,2858.7,2933.6,3019.1,3110.7,3186.4,3247.6,3289.9,3303.3,3291.4,3250.4,3182.9,3104.4,3010.8,2909,2822.4,2740.4,2656.5,2596.5,2559.8,2531.2,2516.4,2515.2,2519.8,2526.4,2534.6,2548.9,2553.8,2536.5,2521.7,2498.6,2429.5,2344.8,2269.6,2170.6,2056.8,1951.3,1828.8,1693.1,1564.4,1424.3,1277.4,1146.6,1018.3,886.06,761.2,635.18,505.79,388.47,283.84,178.64,66.189,-47.226,-154.19,-257.05,-355.28,-444.94,-532.23,-623.76,-717.67,-805.02,-878.52,-952.66,-1041.1,-1126.2,-1200.6,-1281.8,-1368.4,-1448.2,-1526.7,-1611.4,-1697.5,-1778.7,-1862.1,-1953.5,-2040.1,-2132.2,-2246.6,-2346.3,-2421.9,-2524,-2643.4,-2745.3,-2853.5,-2970.6,-3076.9,-3186.2,-3293.8,-3391.8,-3496.9,-3595.8,-3681,-3765.5,-3822.3,-3838.3,-3823.1,-3733,-3544.6,-3291.9,-2971.4,-2576.6,-2143.4,-1681.3,-1191.2,-710.27,-258.37,172.05,570.37,917.57,1211.3,1456.4,1655.8,1820.5,1962.3,2074.9,2163.4,2252.7,2340.4,2418.8,2507,2601.3,2684.4,2759.9,2813.2,2833.5,2839.6,2818.6,2758.1,2690.7,2614.7,2513.5,2420.1,2348,2281.5,2226.6,2178.1,2133.1,2116.1,2120.1,2117.1,2113.3,2122,2134.1,2130.3,2109.8,2087.4,2054.8,2001.7,1942.9,1869.6,1773.6,1683.6,1591.5,1476.2,1368.9,1270.4,1150.5,1032.3,929.86,817.91,705.66,604.94,500.02,400.77,314.91,219.85,121.82,40.46,-41.654,-132.97,-215.29,-288.34,-362.19,-442.77,-529.83,-599.98,-652.28,-721.6,-798.55,-864.2,-944.19,-1023.5,-1079.1,-1154.6,-1242.4,-1297.7,-1363.2,-1455.8,-1524.7,-1588.2,-1674.6,-1750.9,-1820.7,-1902.3,-1979.1,-2062.1,-2162.2,-2252.9,-2337.5,-2437.3,-2536.7,-2621.7,-2705.2,-2798,-2898.7,-2999.6,-3093.8,-3183.5,-3273.9,-3359.2,-3434.9,-3513.2,-3590.4,-3630.9,-3616.6,-3550,-3413.5,-3190.4,-2885,-2517.8,-2120.6,-1693,-1222.5,-754.02,-318.19,104,484.18,800.01,1087,1329,1506.1,1662.3,1789.1,1866.2,1945.1,2026.4,2082.3,2151.7,2232.3,2287.8,2349,2423,2474.3,2513,2536.6,2515.4,2470.4,2422.1,2350.5,2268.3,2201.1,2132.3,2062.1,2016.7,1986.1,1954.9,1939,1939.2,1943.8,1954.6,1965.4,1968.5,1963.6,1948.6,1930,1905.2,1859.5,1805.8,1750.6,1675,1591.8,1513.4,1418.9,1317,1226.5,1130.9,1030.3,941.84,857.75,768.31,675.53,582.34,497.25,421.3,343.29,259.63,176.24,98.905,29.005,-37.555,-106.83,-179.54,-246.38,-305.13,-367.21,-428.04,-479.29,-536.9,-598.07,-642.24,-689.12,-754,-809.24,-854.93,-915.18,-978.67,-1036.1,-1100.7,-1167.7,-1230.6,-1300.7,-1374.3,-1440.2,-1504.7,-1574.5,-1646.5,-1719.2,-1794.1,-1871.5,-1952.5,-2040.4,-2131.7,-2216.9,-2300.5,-2390.3,-2472.2,-2540.7,-2613,-2691.8,-2770,-2842.6,-2891.9,-2912.8,-2905.9,-2842.3,-2707.3,-2509.6,-2239.6,-1906.9,-1543.6,-1150.6,-741.07,-349.11,30.824,397.09,716.43,990.82,1227.4,1407.3,1545.3,1666.8,1758.9,1821.1,1875,1919.1,1949.1,1979.7,2016.7,2050.5,2075.3,2095.7,2115.3,2117.1,2085.2,2038.1,1985.8,1907,1812.2,1735,1670.9,1609,1557.7,1518.1,1492.4,1480.1,1470.9,1474.9,1494.1,1504,1505.7,1511.8,1513.1,1510.3,1500.8,1470.6,1423.5,1363.9,1294,1226.4,1156,1078.5,1000.3,908.78,809.34,723.24,632.64,532.83,448.96,366.7,272.08,186.8,108.32,23.877,-55.549,-130.79,-211.14,-289.78,-361.43,-427.7,-489.25,-551.56,-616.47,-673.89,-724.68,-784.8,-848.42,-899.42,-953.98,-1022.2,-1078.1,-1119,-1168.9,-1228.4,-1290.9,-1359.2,-1422.7,-1473.3,-1526.4,-1595.6,-1670.2,-1736,-1800.5,-1873.2,-1945.8,-2017.7,-2095.1,-2169,-2238.4,-2318.7,-2408.7,-2494.8,-2575.9,-2660.1,-2745.7,-2822.5,-2900.2,-2994,-3085.5,-3158.3,-3230.4,-3303.1,-3357.4,-3384,-3360.6,-3270,-3122.9,-2905.2,-2602.9,-2258.2,-1891.8,-1484.7,-1063,-658.17,-259.87,118.99,452.16,741.13,984.44,1185.3,1357.2,1493.7,1601,1696.7,1768.5,1821.3,1882.6,1944.7,2000.9,2064,2124.3,2176.6,2225.8,2256,2262.4,2247.7,2202.6,2143.4,2086,2015.7,1941.2,1884.1,1840.1,1804.5,1772.6,1741.9,1724,1718.5,1725.7,1752.1,1771.9,1770.7,1769.7,1765,1749.4,1730.6,1694,1643.6,1600.7,1543.6,1463,1382.4,1295.2,1196,1104,1017,924.53,830.29,740.41,655.95,565.69,471.78,394.6,321.02,232.65,152.41,85.271,8.8231,-68.42,-132.08,-196.13,-270.88,-344.82,-405.51,-460.42,-522.84,-589.22,-654.68,-721.87,-789,-856.25,-922.51,-983.69,-1047,-1113.1,-1175.5,-1244.8,-1317.1,-1373.7,-1433.4,-1512.7,-1584.8,-1646,-1723.1,-1809.8,-1884.6,-1951.7,-2023.4,-2101.4,-2181.1,-2262.3,-2349.6,-2438.6,-2522.2,-2610.6,-2706.6,-2793.7,-2880.4,-2984,-3077,-3140.6,-3212.2,-3299.3,-3368,-3426.8,-3481.6,-3485.4,-3419.9,-3295.4,-3091.8,-2815.7,-2505.8,-2153.4,-1749.8,-1338.6,-936.65,-523.74,-117.23,248.08,568.18,844.07,1071.1,1260.2,1421.9,1552.8,1656.8,1741.7,1809.5,1868.7,1925.7,1979.9,2039.8,2104.9,2156.1,2190.3,2214.3,2213.9,2177.3,2119.9,2062.8,2005.4,1942.5,1886.4,1836.6,1778.2,1736.2,1736.8,1747.7,1748.4,1760.5,1784.3,1809.9,1839.8,1861.1,1868.4,1872.6,1864.2,1835.5,1800.1,1755.9,1691.7,1615.1,1532.7,1442.1,1347.8,1250.1,1145.2,1038.4,926.63,808.64,707.13,622.07,523.24,414.08,312.62,216.06,129.07,42.542,-58.258,-143.26,-211.69,-305.94,-400.85,-465.9,-539.05,-621.93,-691.48,-770.01,-853.78,-921.16,-990.12,-1062.5,-1128.1,-1202.2,-1278.9,-1347.5,-1426.5,-1517,-1600.4,-1674.5,-1746.2,-1827.5,-1924,-2019.7,-2107,-2197,-2292.6,-2391.8,-2494.6,-2594.1,-2691.6,-2802.9,-2922.4,-3028.5,-3131.6,-3245.5,-3348.1,-3437.7,-3531.6,-3603.4,-3631.7,-3624.8,-3555.6,-3400.7,-3181.6,-2898.2,-2542.6,-2137.5,-1696.6,-1235.5,-782.49,-339.46,85.255,467.78,814.88,1121.3,1364.7,1569.3,1752.4,1892.8,2004,2105.9,2187.2,2259.5,2336.3,2404.4,2472.4,2548.1,2609.7,2656.7,2695,2703.4,2678,2636.4,2586.4,2530.6,2463.5,2386.4,2323.4,2279.5,2237.7,2206.9,2197,2191.6,2186.8,2191.3,2202.7,2219.8,2239.7,2249.2,2245.2,2231.8,2202.1,2153.4,2094.9,2026,1940.2,1845.4,1752.2,1657.5,1553.4,1436.4,1307.6,1176.6,1055,943.17,834.61,724.6,611.49,500.36,397.3,294.64,178.48,58.156,-38.741,-119.17,-219.59,-332.12,-425.45,-516.08,-618.02,-707.77,-791.73,-887.47,-975.51,-1054.7,-1144.4,-1234,-1315.7,-1403.3,-1496.1,-1585.2,-1666,-1741.5,-1828.5,-1927.1,-2019.8,-2112.2,-2211.1,-2304.4,-2397.1,-2501.5,-2612.1,-2726.4,-2838.3,-2942.3,-3055.5,-3176.9,-3284.5,-3396.9,-3525.8,-3640,-3746.9,-3867.2,-3975.7,-4078.2,-4197.7,-4296.2,-4354.5,-4396.7,-4389,-4283.5,-4095.3,-3839,-3501.6,-3093.5,-2637.2,-2135.4,-1600.8,-1071.2,-565.19,-80.925,369.32,776.06,1137.9,1441.5,1691.6,1908.1,2086.5,2234.7,2373.5,2490.2,2585.2,2688.9,2796.8,2897.2,3006.1,3111,3186.1,3241.5,3276.2,3269,3232.4,3188.9,3130.1,3051,2971.2,2901.9,2834.3,2768.5,2724.5,2704.9,2689.9,2680.1,2680.9,2682.7,2696.1,2720.2,2717.3,2692.2,2673.4,2640.8,2590.7,2540.6,2460.9,2350.1,2250.6,2148.1,2026.8,1915.8,1803.1,1669.5,1543.5,1425.7,1302.6,1189.6,1074.2,942.17,825.57,724.8,608.64,489.32,384.05,280.3,176.58,80.568,-11.82,-106.78,-204.59,-297.27,-378.83,-458.1,-544.7,-631.42,-703.69,-766.89,-840.95,-922.38,-999.56,-1080.3,-1160,-1232.7,-1315.9,-1402.6,-1475.1,-1554.8,-1647.3,-1730.8,-1816.4,-1914.2,-2004.9,-2091,-2190.7,-2298.9,-2405,-2510.8,-2617.4,-2719.4,-2817.5,-2917.4,-3014.9,-3108.7,-3203.1,-3285,-3341.4,-3365.5,-3330.5,-3217.2,-3027.6,-2752.8,-2398.1,-1991.4,-1537.3,-1044.2,-548.68,-64.841,409.54,852.07,1245.3,1594.3,1893.6,2130.4,2314.1,2464.1,2583.9,2677,2752,2803.4,2844.4,2901.1,2951,2972.4,2992.2,3001.2,2970.9,2922.9,2855.9,2752.6,2645.7,2539.3,2412.1,2297.8,2210.2,2128.2,2068.6,2031.5,1999.1,1987.2,1986.2,1980.5,1992.2,2007.4,2001.6,1992,1974,1941.1,1904.7,1842.4,1760.4,1693.4,1611.4,1496.5,1380.6,1261.4,1135.5,1010.4,868.81,730.09,611.42,475.71,336.06,222.37,97.48,-36.328,-146.61,-261.35,-379.78,-470.81,-564.35,-675.51,-774.4,-868.61,-972.2,-1067.1,-1151.3,-1239,-1327.3,-1405.9,-1482.5,-1567.6,-1644.1,-1707.6,-1787.1,-1875.3,-1947.3,-2021.4,-2104.3,-2182.1,-2265.5,-2350.7,-2430.1,-2523,-2619.2,-2708.9,-2815.3,-2919,-3005.4,-3115.6,-3237.7,-3333.1,-3429.9,-3540.6,-3640.4,-3735.4,-3830.2,-3914.2,-3983.4,-4015.8,-3988.6,-3899.6,-3732.6,-3471,-3127.5,-2719.6,-2251.9,-1739.8,-1220.6,-711.72,-204.94,276.43,701.82,1084.2,1421.8,1693.1,1915.2,2101.4,2244.3,2363.2,2469.1,2555.7,2642,2736.4,2821.8,2898.8,2971.5,3030.5,3069.3,3082.3,3069,3034.6,2970.8,2874.9,2770.7,2672.6,2572.6,2477.6,2401.3,2331.5,2262,2215.4,2196.7,2190.8,2193.7,2196,2192,2198.4,2204.5,2179.9,2140.3,2107.8,2066.2,2002.3,1920.3,1829.2,1740.8,1647.3,1534.9,1415.6,1296.1,1170.4,1048.1,930.86,807.51,689.54,582.44,464.91,341.41,236.65,139.58,30.174,-79.149,-174.53,-260.59,-342.9,-426.46,-515.12,-604.12,-687.21,-763.49,-838.43,-918.9,-1001.3,-1078.5,-1151.8,-1226.3,-1305.8,-1387.3,-1464.8,-1547.4,-1637.5,-1721.7,-1807.6,-1901,-1980.6,-2055.5,-2151,-2251.1,-2344.6,-2442,-2537.6,-2632.8,-2733.5,-2828.5,-2927.4,-3043.5,-3155.8,-3253.8,-3354.4,-3470,-3593.9,-3700.5,-3791.5,-3901.4,-4018.3,-4109.3,-4189.3,-4264.5,-4305.1,-4294,-4215.2,-4048.3,-3787,-3432.1,-3007.3,-2543.1,-2030.5,-1469.9,-909.7,-381.89,117.93,585.48,1003.3,1357.5,1645.2,1880.5,2082.4,2249.2,2374.6,2480.7,2585.2,2670,2737.1,2813.7,2891.4,2959.9,3030.5,3082.6,3100.5,3100.9,3068.1,2988.6,2901,2816.2,2707.4,2588.1,2491.4,2411.4,2335,2278.1,2247.5,2223.6,2208.6,2212,2213.3,2214,2228.4,2226.7,2202.4,2186.3,2160.7,2104.8,2040.4,1967.6,1878.1,1783.5,1672.9,1543.6,1420.2,1296.6,1161,1030.3,902.71,770.74,653.61,547.29,422.49,287.98,172.71,72.038,-32.713,-138.66,-231.84,-313.01,-401.12,-502.15,-589.83,-649.8,-709.45,-785.21,-854.71,-909.17,-967.15,-1032.1,-1097.8,-1169.3,-1238.3,-1292.8,-1353.8,-1432.8,-1501.6,-1555.6,-1624.6,-1707.3,-1782,-1852.5,-1932.8,-2023,-2113.7,-2199.5,-2287,-2382.3,-2482.2,-2585.1,-2693.3,-2805.2,-2913.1,-3017.3,-3128.1,-3236.1,-3326.8,-3421.5,-3526.6,-3608.7,-3664.4,-3691.9,-3645.6,-3512.3,-3306.6,-3013.5,-2635.9,-2193.8,-1692.5,-1160.5,-622.82,-76.23,452.07,934.73,1375.5,1756.4,2070,2339.1,2552.9,2703.2,2824,2924.8,2994.6,3048,3102.3,3158.4,3203.7,3229.8,3249.4,3261.1,3237.6,3175.7,3088.4,2979,2856.6,2722.6,2575.6,2441.9,2334.1,2238.6,2165.2,2115.9,2069.3,2040,2043.3,2050.8,2055.5,2069.3,2073.5,2063.8,2055,2030.4,1977.7,1917.3,1852.6,1765.1,1655.6,1540.1,1418,1282,1147.4,1017.2,868,712.12,573.93,428.4,270.63,137.41,16.62,-119.47,-246.98,-355.49,-466.16,-576.97,-685.48,-804.82,-920.73,-1010.6,-1093.6,-1194,-1291.2,-1370,-1456.8,-1552.4,-1631.3,-1708.9,-1797.2,-1876.7,-1961.6,-2058.9,-2134.4,-2205,-2303.5,-2396.6,-2473.3,-2562,-2652,-2737.4,-2837.5,-2944.9,-3049.8,-3150.9,-3244.5,-3352.1,-3477.2,-3588.3,-3692.6,-3808.9,-3922.2,-4033.5,-4153.4,-4278.7,-4411.2,-4531.6,-4622.6,-4711.9,-4803.5,-4863,-4877.8,-4830.9,-4695.6,-4464.1,-4120.8,-3667.6,-3147.4,-2575.6,-1946.1,-1288.8,-639.33,-13.362,572.49,1102.5,1568,1962.5,2287.8,2558.2,2785.4,2965.5,3104.6,3226.6,3333.9,3422.3,3513.7,3619.9,3719.4,3792.6,3846,3889.9,3907.6,3879.5,3816.5,3726.3,3607.3,3477.9,3349.7,3227,3122.7,3024.3,2926,2858.8,2816.6,2774.8,2752.7,2753.5,2753.1,2748.1,2732,2708.3,2699.3,2680.1,2616.5,2537.2,2460.6,2362.5,2249.3,2138,2006,1848.4,1698.7,1558.8,1405.8,1248.4,1099.7,951.33,802.59,653.78,502.67,362.37,237.49,115.59,-10.491,-141.49,-264.2,-368.6,-473.09,-578.06,-668.06,-767.33,-882.65,-976.47,-1053,-1141.9,-1236.6,-1326.6,-1412.5,-1496.1,-1587.1,-1681,-1768.7,-1863,-1960.9,-2047.2,-2139,-2244.9,-2342.1,-2437.3,-2552.9,-2670.6,-2775.1,-2885.1,-3001.9,-3114,-3230.6,-3356.9,-3486.4,-3614.2,-3734.2,-3861.2,-4006.2,-4138.1,-4254.5,-4387.1,-4512.6,-4613.1,-4725,-4835.4,-4904.5,-4936.6,-4907.1,-4771.9,-4538,-4207.4,-3761.2,-3218.9,-2612.3,-1953.5,-1264.3,-580.78,75.254,699.29,1271.9,1763.8,2182.2,2546,2835.7,3041.9,3203.7,3351,3469.6,3550.7,3620.6,3692.2,3750.1,3801.4,3856,3889.7,3892.6,3870,3807.1,3706.3,3584.6,3439.6,3282.8,3135.6,2997.6,2879.3,2792.5,2723.1,2669.4,2642.9,2638.1,2646.8,2664.6,2682.1,2691.7,2691.1,2682.9,2667.1,2633,2576.9,2501.6,2401.9,2284.3,2164.9,2036.6,1884.8,1720.4,1559.9,1396.5,1224.9,1061.5,906.16,744.4,588.29,438.7,277.19,128.57,5.0452,-136.01,-286.99,-408.57,-521.16,-638.01,-746.33,-860.71,-976.82,-1082.5,-1197,-1307.2,-1397,-1499.1,-1610.2,-1703,-1794.4,-1887.8,-1974.8,-2075.7,-2185,-2279.8,-2371.3,-2472.2,-2581.2,-2699.4,-2820.8,-2941.9,-3064.9,-3188.1,-3315.1,-3449.2,-3588.4,-3730.3,-3869.1,-4007.9,-4152.4,-4291.9,-4427.8,-4570.2,-4703.1,-4823.1,-4939.5,-5022.9,-5046.2,-5008.4,-4877.2,-4617.9,-4242.9,-3765.3,-3182.3,-2515.1,-1800.5,-1064.3,-327.13,386,1046.3,1631.3,2138.6,2583.9,2966.6,3259.7,3469.4,3644.3,3797.7,3911.5,3996.1,4069,4133.9,4202.3,4274.2,4332.1,4368.3,4380,4363.2,4317.6,4231,4098.4,3946,3790.4,3627.5,3470.5,3330,3199.1,3093.9,3030.3,2986,2949.3,2930,2921.7,2924.9,2939.6,2935.6,2904.9,2870.4,2824.2,2748.9,2654.5,2553.3,2442.7,2309.5,2154.5,1998.9,1839.7,1664.2,1492.2,1327.5,1150,975.47,816.43,655.23,498.1,350.89,196.1,47.47,-81.019,-213.85,-345.58,-454.89,-571.67,-709.58,-832.79,-938.57,-1047.8,-1154.5,-1260.8,-1374.6,-1482.8,-1588.5,-1702.7,-1808,-1901.2,-2002.7,-2108.6,-2212,-2323.9,-2433.7,-2528.2,-2630.3,-2748.7,-2857.2,-2958,-3073.4,-3192.5,-3303.4,-3422.5,-3552.5,-3677,-3798.3,-3929.6,-4066.8,-4196.8,-4325.1,-4466.5,-4609.4,-4739.3,-4873.1,-5017.2,-5149.8,-5267.2,-5380.1,-5481.2,-5557.5,-5594.6,-5563,-5426.4,-5162,-4764.2,-4237.7,-3601.1,-2886.5,-2112.1,-1292.4,-472.66,309.74,1048.3,1718.4,2289.3,2767.3,3165.6,3489.5,3752.5,3959.2,4115.7,4244.8,4349.9,4430.3,4520.1,4626.2,4707.4,4770.6,4854.9,4928.7,4946.4,4924.4,4869.7,4764.1,4627.2,4480.1,4315.7,4139.3,3966.5,3813.5,3699.9,3617.4,3543.1,3483.6,3451.4,3436.2,3418.3,3391.9,3372.1,3354.2,3313.2,3257.4,3197.4,3112.8,3009.2,2899.5,2765.6,2615.4,2467.6,2304,2126.9,1957.7,1786.8,1611.5,1443.6,1274.4,1106.1,949.78,794.07,638.01,492.57,347.05,199.31,66.024,-56.094,-177.97,-299.18,-423.64,-546.98,-656.43,-761.28,-871.29,-975.95,-1077.4,-1182.5,-1280.5,-1373.7,-1473.4,-1569.9,-1665.2,-1778.1,-1896.5,-2000.5,-2101,-2207.9,-2316.1,-2428.7,-2544.6,-2654.5,-2765.7,-2884.2,-2999.2,-3113.4,-3238.6,-3365,-3483.1,-3601.7,-3725.1,-3849.9,-3978.6,-4111,-4239.5,-4365,-4497.5,-4637.9,-4781.4,-4925.9,-5057.3,-5169,-5283.9,-5406.1,-5511.1,-5594.8,-5652.4,-5647.4,-5544.9,-5327.7,-4985.1,-4501.6,-3875.4,-3159.5,-2401.8,-1591.1,-752.05,50.304,801.81,1484.6,2067.4,2574.4,3007,3331.3,3575.9,3772.5,3915.5,4024.9,4111.8,4170.3,4227,4292.6,4349.6,4399.7,4445.2,4473.4,4470.2,4425.4,4344.3,4228.6,4074.1,3906.9,3748.8,3586.8,3426.9,3298.5,3207,3137.3,3086.4,3063.6,3060.9,3063.1,3077.4,3095.5,3089.6,3070,3050.2,3012.5,2955.2,2879.9,2777.6,2661.6,2536.2,2390.4,2236.4,2074.9,1895.8,1718,1545.1,1360.5,1176.4,1002.1,826.73,651.94,485.13,327.58,174.31,16.217,-138.38,-278.52,-411.97,-539.79,-661.81,-789.58,-920.92,-1047.5,-1163.2,-1259.9,-1355.8,-1467.2,-1573.6,-1675.2,-1787.2,-1891.6,-1988.5,-2098.7,-2206.6,-2302.6,-2404.3,-2509.1,-2608.6,-2711.5,-2823.9,-2943.2,-3059.7,-3173.9,-3300.3,-3434.3,-3562.6,-3690.1,-3824.9,-3970,-4118.2,-4259.9,-4410.9,-4575.6,-4722.8,-4852.1,-4988.7,-5126,-5251.3,-5364,-5453.7,-5503.3,-5478.2,-5341.4,-5084.5,-4691.7,-4147.8,-3486.4,-2743,-1929.9,-1085.4,-252.64,549,1291,1949.2,2525.2,3012.9,3401.9,3707,3949.5,4133.3,4262.2,4356.9,4442.5,4519.9,4579.3,4635.7,4701.5,4761.4,4812.2,4849.3,4842.6,4791,4704.8,4566.7,4401,4244.3,4068,3877.4,3722.7,3586.8,3455.9,3363.6,3300.5,3254.6,3235.8,3217.5,3196.2,3194.8,3187.2,3159,3128.7,3089.9,3039.8,2975.7,2877.1,2755.3,2621,2462,2296.6,2132.8,1949.2,1761.9,1585.5,1399.4,1211.3,1040.1,872.62,699.67,530.92,369.11,211.49,65.193,-66.634,-203.31,-347.8,-472.08,-585.73,-719.58,-847.08,-941.28,-1032.6,-1141,-1254.6,-1364.1,-1462.4,-1557.7,-1667.8,-1780.2,-1880.3,-1976.8,-2073,-2175.1,-2293.3,-2409.6,-2513.5,-2627.1,-2750.1,-2864.2,-2976.9,-3094.7,-3211.4,-3328.6,-3447.6,-3570.3,-3698.8,-3820.2,-3930.9,-4048.1,-4173.4,-4300.7,-4434.2,-4567.6,-4697.1,-4833.2,-4970.8,-5101.2,-5233.3,-5370.1,-5503.8,-5630.2,-5750.2,-5867.3,-5968.2,-6033,-6055.8,-6003.1,-5826.6,-5521.5,-5074.5,-4458.3,-3716.5,-2903.7,-2024.8,-1112.6,-214.28,647.05,1428.5,2105.4,2695.3,3194.2,3595.5,3909.3,4140.3,4321.3,4477.1,4584.2,4656.3,4733.1,4806.4,4877.2,4965.1,5059.4,5149.4,5225,5264.6,5267,5224.8,5121.9,4983.8,4834.5,4664.5,4485.7,4328.7,4196.6,4073.2,3958.7,3871.7,3812.3,3762.5,3725.6,3707.1,3696.4,3693,3690.9,3669.7,3632.7,3585.1,3508,3400.4,3280.7,3151,3004.4,2840.1,2664.4,2488.6,2310.5,2123.2,1939,1761.8,1579.6,1401.6,1237.6,1071.2,903.1,750.51,608.88,471.57,338.16,206.13,83.644,-34.235,-159.61,-270.84,-365.41,-475.76,-590.26,-687.92,-787.13,-885.84,-978.13,-1081.3,-1181.1,-1271.6,-1383.8,-1503.1,-1604.2,-1713.1,-1833.7,-1944.1,-2056.9,-2182.2,-2309.3,-2431.4,-2544.4,-2662.8,-2798.5,-2928.5,-3048.9,-3179.5,-3305.7,-3419,-3541.9,-3668.6,-3782,-3898.5,-4025.9,-4145,-4253.4,-4369.8,-4500,-4634.2,-4763.4,-4881.8,-4994.5,-5119.9,-5256.4,-5381.4,-5496.4,-5618.2,-5741.6,-5855,-5961.6,-6063.2,-6132.6,-6126.1,-6029.5,-5834.3,-5490.6,-4973.5,-4325.5,-3574.7,-2727.3,-1824.5,-909.84,-10.644,828.75,1584.3,2261.4,2840.6,3307.8,3687.3,3987.7,4202.1,4348,4447.1,4515.3,4568.7,4611.3,4648.8,4695,4753.4,4819.1,4874.8,4900.1,4896,4859.2,4777.7,4664.3,4524.6,4354,4179.3,4020,3874.2,3760.1,3680.3,3609.7,3549.6,3512.6,3496.7,3503.5,3524.7,3538.3,3536.9,3526.9,3509.1,3470.6,3399.8,3305.7,3196,3064.8,2916.1,2756.7,2583.3,2400.8,2217.8,2031.4,1837.1,1642.8,1461.8,1290.1,1114.4,941.16,778.85,617.04,457.83,315.99,186.23,59.624,-61.734,-185.32,-315.51,-436.32,-544.54,-659.2,-780.65,-892,-995.19,-1098.6,-1199,-1298.7,-1400.3,-1502.5,-1612.5,-1725.8,-1828.6,-1934.2,-2054.6,-2173.3,-2290.5,-2416.2,-2535.8,-2648.3,-2774.7,-2909.5,-3029.3,-3141.8,-3274.7,-3420.8,-3546.3,-3659.9,-3792.4,-3930.1,-4057.7,-4190.3,-4323,-4448.2,-4583.4,-4722.3,-4852,-4993.9,-5147,-5283.6,-5414.3,-5557,-5692.6,-5815,-5938.9,-6052.9,-6136.1,-6177.1,-6151.2,-6020.8,-5753.4,-5336.6,-4778.3,-4082.7,-3265.7,-2377.6,-1462.2,-552.03,314.47,1129.9,1880.2,2513.5,3034.4,3483,3840.1,4099.4,4299.3,4451.2,4563.2,4651.8,4716.8,4775.5,4845.3,4915.1,4982.6,5050.4,5114.2,5164.4,5165.1,5103.7,5008.9,4879.9,4714.7,4543,4370.1,4201.4,4056,3917.8,3791.1,3708.8,3653.2,3610.3,3598.8,3598.7,3592.8,3596.6,3595,3571.8,3535.1,3473,3386.7,3296.9,3181.7,3029.5,2877.2,2720.5,2530.8,2339.7,2165.8,1972.8,1766.2,1584.7,1413.1,1227.5,1045.6,875.06,708.47,551.73,402.95,257.88,125.11,-6.8479,-148.77,-278.11,-396.54,-524.24,-637.76,-732.13,-845.46,-967.45,-1072,-1181.9,-1298.3,-1400.2,-1504.5,-1617.2,-1722.2,-1833.4,-1957,-2072.3,-2183.2,-2305,-2432.8,-2562.8,-2694,-2821.7,-2949.3,-3080.7,-3210.5,-3332.8,-3451.3,-3581.2,-3724,-3858.6,-3982.7,-4113,-4241,-4361.5,-4495.5,-4638.7,-4770.1,-4896.3,-5027,-5161.6,-5302.8,-5449.4,-5598.7,-5745.9,-5879.5,-6007.2,-6141.9,-6269,-6379.6,-6478,-6549,-6559.9,-6471.6,-6248,-5875.1,-5351.5,-4687.6,-3908.3,-3035.2,-2104.6,-1169.8,-258.13,609.22,1396.9,2092.7,2692.6,3187.8,3594,3920.3,4162.1,4347.3,4501.8,4627.4,4742.7,4858.2,4963.7,5069.7,5186.5,5304,5415.5,5507.3,5563.4,5578.1,5534.7,5429.5,5288.8,5125.1,4944.9,4761.9,4572.8,4393.4,4256.2,4148.9,4059.3,4004.3,3968.1,3933.5,3916.4,3907.5,3883.8,3849.3,3810,3762.5,3689.4,3578.9,3460.5,3344.2,3196,3024.4,2854.6,2669.1,2472.3,2286.8,2102.6,1914.2,1724.1,1530,1351.5,1192.7,1025.2,852.26,697.3,555.86,417.22,282.83,156.68,38.596,-79.538,-201.35,-320.09,-432.22,-542.72,-657.58,-767.98,-861.59,-954.26,-1060,-1161.9,-1257,-1358.1,-1459.8,-1563.1,-1677.7,-1795.7,-1912.8,-2033.5,-2153.3,-2267.2,-2378.4,-2497.7,-2630.1,-2759.7,-2878.7,-2998.7,-3121.9,-3250.7,-3388.5,-3517.9,-3634.6,-3756.6,-3882.3,-4010.1,-4149.5,-4285.9,-4411.1,-4551.1,-4703.9,-4837.9,-4958.6,-5087.1,-5209.3,-5316,-5424.3,-5530.7,-5614.7,-5672.2,-5685.7,-5610,-5408.1,-5065.5,-4583,-3968,-3231,-2407.3,-1544.6,-670.67,186.46,988.82,1715.4,2357.6,2914.8,3388,3756.8,4020.4,4226,4395,4515.3,4601.9,4675.2,4740.2,4807.9,4879.1,4949.6,5023.2,5080.2,5096.2,5069.9,4989.1,4851.5,4684.6,4489.8,4267.4,4056.8,3870.3,3699.7,3571.3,3486.5,3414.9,3364.5,3346.4,3339.2,3339.1,3349.6,3352.2,3339.9,3317.1,3275.5,3205.6,3107.1,2991.3,2867.2,2716.5,2535.8,2357.9,2181.3,1981.4,1781.5,1598.8,1410.5,1218.5,1035.3,859.58,703.47,556.92,393.9,236.85,99.72,-43.756,-182.63,-301.15,-425.44,-556.09,-678.88,-805.94,-924.98,-1019.5,-1118.7,-1233.8,-1339.7,-1437.7,-1543.7,-1656.3,-1769.7,-1874.3,-1967.5,-2069.2,-2185.9,-2299.6,-2408.6,-2520.2,-2630.8,-2744.8,-2864.8,-2983.7,-3106.2,-3233.6,-3358.4,-3485.3,-3608.4,-3718.9,-3838.2,-3972.3,-4098.2,-4225.3,-4365,-4494.4,-4619.4,-4764.7,-4910.4,-5042.4,-5184.2,-5327.8,-5450.8,-5576.1,-5712.8,-5828.3,-5925.2,-6024.3,-6094.7,-6095.2,-6008.8,-5810.3,-5467.8,-4970.3,-4332.7,-3579.6,-2728.2,-1819.6,-912.81,-29.438,810.5,1565.4,2232.3,2813.4,3282.9,3656,3963.8,4200.6,4381.9,4534.9,4653.4,4746.5,4842.8,4948.4,5063,5180.8,5285.8,5380.1,5462.5,5502.3,5482.2,5407.1,5273.3,5088,4880.5,4666.5,4452.1,4257.4,4097.8,3972,3869.7,3781.1,3716.7,3683.4,3658.3,3634.5,3624.8,3608.9,3566.9,3510.5,3440.7,3351.2,3245.3,3116.7,2972.6,2826.6,2659.2,2471.9,2300,2130.4,1933.9,1734.7,1551.2,1374.9,1214.3,1063.8,900.18,736.99,593.44,458.4,328.41,205.21,75.205,-59.274,-181.48,-293.65,-403.89,-509.58,-613.42,-723.62,-836.38,-941.07,-1036.7,-1130.1,-1229.5,-1338.4,-1446.8,-1545.3,-1643.7,-1751.3,-1862.6,-1975,-2089.3,-2206.6,-2331.1,-2456.8,-2576.4,-2696.7,-2815.4,-2931.5,-3064.3,-3204.4,-3321.2,-3431.2,-3558.2,-3684.2,-3800.9,-3920.5,-4042.8,-4165.8,-4282.3,-4388.5,-4506,-4635,-4750.4,-4864.4,-4992.4,-5118,-5243.4,-5374.3,-5497.6,-5624.7,-5759.1,-5871.8,-5968.9,-6069.8,-6145.6,-6168.7,-6130.6,-5995.7,-5720.3,-5285.5,-4698.5,-3983.8,-3161.6,-2261.8,-1339.5,-430.33,446.92,1251.4,1962.8,2592.5,3134.3,3584.1,3954.1,4246.7,4480.3,4681.3,4844.4,4981.7,5125.6,5266.7,5399.9,5551.2,5701.5,5824.3,5940.6,6032.6,6053.2,6014.8,5923.2,5756.4,5552,5347.4,5124.2,4901.1,4712.3,4545,4409.6,4321.8,4248.3,4188.5,4164.7,4147,4122.3,4106.3,4077.2,4025.1,3967.4,3888.8,3782.5,3669.5,3545.1,3400,3242.9,3072.6,2890.6,2711.6,2537.4,2361.4,2183.9,2007.4,1833.9,1669.3,1518.8,1375.1,1231.1,1097.9,979.47,861.49,741.34,626.02,516.76,411.26,299.14,183.27,84.194,-7.9744,-113.29,-216.98,-313.14,-412.75,-506.84,-595.72,-692.32,-790.85,-890.03,-996.27,-1104.7,-1216.3,-1331.7,-1444.6,-1563.1,-1690.8,-1816.4,-1941,-2071.3,-2202.4,-2326.3,-2446.7,-2577.3,-2711.7,-2834.9,-2965.1,-3107.2,-3233.8,-3356.7,-3493.7,-3616.1,-3721,-3832.6,-3939.8,-4038.2,-4142.2,-4242.9,-4340,-4447.6,-4553.2,-4647,-4742.6,-4841.2,-4937.8,-5043.3,-5159.9,-5273.4,-5385,-5507.1,-5633.5,-5751.7,-5866.2,-5980.3,-6090.1,-6199,-6300.5,-6371,-6393.3,-6346.7,-6189.3,-5888.4,-5436.2,-4828.6,-4071.6,-3205.6,-2281.9,-1331,-385.81,506.2,1319.6,2051.6,2690.5,3224.3,3655.4,3998.1,4279.3,4515.4,4700.5,4844.1,4974.4,5103.2,5237.5,5381.3,5519.5,5654.7,5803.8,5938.8,6029.2,6082.3,6074.7,5976.5,5825.4,5648.7,5432.9,5208.6,5006,4809.8,4636.6,4509.1,4395.6,4293.2,4240.4,4223.5,4205.9,4190.4,4179,4155.5,4119.8,4070.9,3991.6,3888.6,3784.7,3667.2,3522.5,3369.3,3208.5,3032.2,2860.5,2692.6,2513.9,2342.2,2179.2,2007,1842.8,1697.4,1551.5,1407.3,1277,1154.4,1032.6,910.39,793.83,687.39,578,465.66,365.86,267.67,160.06,58.218,-37.329,-135.56,-229.53,-323.39,-425.8,-524.21,-613.62,-707.96,-811.01,-913.1,-1010.6,-1112.8,-1222.4,-1329.4,-1438.8,-1559.5,-1674.6,-1782.4,-1906.4,-2039.6,-2166.2,-2297.5,-2427.6,-2543,-2663.7,-2796,-2919.4,-3039.2,-3164.9,-3279.9,-3381.6,-3484.7,-3591.1,-3700.9,-3809.1,-3903.9,-3994.8,-4089.3,-4176.8,-4265.9,-4361,-4445.6,-4531.9,-4633.1,-4732.8,-4836.3,-4948.3,-5055.2,-5174.8,-5308.2,-5416.8,-5510.3,-5618.4,-5727.4,-5833.8,-5939.1,-6015.7,-6048.7,-6019.6,-5879,-5600.3,-5178.5,-4602,-3887.2,-3070.1,-2176.4,-1249.4,-340.57,527.67,1335.1,2051.5,2666.1,3178.5,3594.7,3934.7,4199.5,4383.7,4516.5,4619.4,4689.7,4748,4812.6,4876.2,4943.4,5014.5,5075.1,5125.1,5149.1,5120.3,5042.3,4916.9,4741.6,4545.2,4345.9,4147.2,3973.6,3826.3,3692.3,3599.3,3552.4,3517.2,3497.2,3502.4,3506.3,3506.1,3517.4,3518.8,3488.7,3440.3,3378.1,3290.9,3186.2,3066.6,2919.7,2759.3,2595,2408.8,2220.2,2050.4,1865.3,1667.7,1498,1335.4,1158.7,994.54,845.28,700.89,566.85,439.58,321.64,211.05,90.052,-30.711,-134.66,-234.34,-335.33,-437.67,-547.06,-651.72,-742.39,-829.28,-922.34,-1025.5,-1129.9,-1225.3,-1322.3,-1425.7,-1524.6,-1626.1,-1740.6,-1854.4,-1958.2,-2068.8,-2197.6,-2329.4,-2450.3,-2564.3,-2677.4,-2795.8,-2918,-3031.4,-3143.5,-3266.8,-3383.4,-3487.4,-3600.2,-3721.6,-3838.4,-3952.3,-4067.5,-4184.4,-4301.2,-4420.7,-4550.6,-4681.2,-4804.7,-4937.1,-5072.8,-5190,-5300.8,-5416.9,-5521.1,-5611,-5693.4,-5744.3,-5729.8,-5626.4,-5401.1,-5021.2,-4483.5,-3797.8,-2988.6,-2113.6,-1213.1,-299.35,581.75,1390.6,2132.2,2784.4,3316.7,3747.1,4092.4,4359,4565,4713.6,4817.1,4895.8,4945.7,4990.7,5062.3,5135.1,5202.2,5285.9,5362.5,5409.6,5428.8,5402.8,5325.3,5198,5014.9,4806.3,4602,4399.5,4215,4060,3921.2,3808.4,3731.1,3679.8,3650.7,3627.7,3605.8,3607.5,3615.4,3596.1,3562.9,3522,3452.5,3356.4,3247.8,3126.5,2983,2814.8,2639,2464,2278.9,2090.3,1909.7,1730,1551.8,1383.6,1222.3,1060.9,897.2,741.3,605.68,483.84,359.67,225.3,93.684,-11.408,-108.11,-230.04,-348.81,-438.23,-531.06,-637.06,-738.71,-840.17,-938.14,-1031.2,-1128.6,-1220.4,-1316.6,-1432.9,-1537.6,-1632.1,-1750.4,-1865.6,-1964.5,-2080.5,-2197.8,-2302.4,-2425.1,-2556.4,-2671.7,-2788.4,-2918.2,-3054.4,-3189.5,-3315,-3434.7,-3552.6,-3668.8,-3793.1,-3919,-4029,-4129.8,-4233.7,-4347.2,-4469,-4579.4,-4674.5,-4769.4,-4864.9,-4969.5,-5090.3,-5204.1,-5306.5,-5416.7,-5533.5,-5655.3,-5781.3,-5899.5,-6015.7,-6137.2,-6256.9,-6371.6,-6467.5,-6536.6,-6579.7,-6546.7,-6385.3,-6091.3,-5630.9,-4979.8,-4200.1,-3332,-2372.3,-1370.3,-383.16,568.33,1449.4,2222.3,2879.8,3438.9,3916.3,4298,4579.3,4799.4,4977.1,5107.2,5213.3,5313.3,5395.1,5464.6,5552.3,5670.8,5795,5902.7,5997.4,6063.4,6076.8,6047,5965.6,5813.9,5626,5431.4,5221.9,5013.7,4826.8,4661,4529.9,4431.6,4346.1,4283.3,4248.3,4222.2,4202.1,4184.9,4163.7,4144.5,4111.1,4041.7,3951.5,3849.6,3729.2,3602.8,3465.9,3299.3,3117.9,2937.3,2752.3,2570.1,2395.6,2217.2,2032.7,1852.5,1687.5,1536.5,1383.6,1229.4,1089.7,958.39,822.52,691.66,575.41,464.82,350.88,240.88,138.18,29.155,-81.602,-178.1,-278.43,-389.38,-482.94,-573.22,-684.91,-786.16,-874.04,-984.19,-1097.3,-1196.3,-1309.1,-1427.4,-1538,-1661.1,-1782.9,-1891,-2016.1,-2151.4,-2272.5,-2398.9,-2533.5,-2658.7,-2784.9,-2911.6,-3030.9,-3159.8,-3294.8,-3416.8,-3539,-3669.7,-3790.9,-3905.4,-4023.9,-4131.1,-4227.9,-4344.4,-4469.8,-4566.4,-4650.6,-4749,-4845.4,-4942.8,-5057.1,-5166.6,-5269,-5384.7,-5503.6,-5627.3,-5766.3,-5892.3,-6003.3,-6129.9,-6256.6,-6365.1,-6471.8,-6569.5,-6630,-6624.8,-6516.4,-6276,-5874.8,-5297.7,-4579.4,-3746.2,-2804.9,-1815.5,-838.7,113.88,1010.8,1816.7,2525.8,3122.3,3608,4008.1,4317.9,4543.5,4713.4,4826.3,4899.1,4970.5,5029.1,5065.8,5118.4,5196.8,5279.7,5361.2,5431.4,5472.1,5477.3,5440.9,5354.5,5225.5,5066.1,4879.1,4679.7,4497.3,4341.6,4211.4,4112.3,4032.3,3962.5,3924.8,3914.2,3895.8,3876.4,3872.6,3860.3,3827.3,3789.5,3739,3656.1,3553.9,3449.3,3326.1,3171.7,3003.3,2828.8,2644.7,2464.5,2287.5,2097.4,1906.4,1728.9,1554.9,1383.9,1219.7,1059.9,911.78,772.49,633.05,505.25,386.31,259.04,135.72,26.093,-83.905,-196.4,-306.24,-411.26,-509.65,-612.74,-718.24,-807.02,-896.29,-1007.5,-1116.3,-1213.4,-1321.8,-1436.8,-1546.7,-1668.9,-1802.7,-1921.9,-2030.9,-2153.1,-2282.9,-2407,-2534.8,-2671.6,-2803.6,-2923.1,-3042,-3171.7,-3302.6,-3423.4,-3543.1,-3667.9,-3791.4,-3913.2,-4028.7,-4137.4,-4257.6,-4380.3,-4485.1,-4602.1,-4746.7,-4879.2,-4998.5,-5132.2,-5264.8,-5390.1,-5524.2,-5654.8,-5778.6,-5904.2,-6009.6,-6096.1,-6171.9,-6169.5,-6036.2,-5789.3,-5399.6,-4826.2,-4111.6,-3289.6,-2370.5,-1417.4,-473.45,457.13,1327.4,2100.1,2780.3,3353.9,3817.4,4193.3,4480.8,4684.7,4829.7,4929,4997.7,5048.4,5082.6,5119.2,5170.8,5226.9,5288.6,5357.4,5412.6,5428.1,5395.5,5331,5234.9,5085,4898.5,4705.4,4505,4319.8,4169.1,4026.7,3899.5,3814.9,3755.2,3711.8,3689.5,3673.1,3665.4,3666.6,3653.8,3630.5,3598.6,3537.3,3455.2,3364.8,3251.2,3112.4,2953.9,2778,2599.5,2424.2,2243.2,2054.1,1857.8,1660.9,1474.8,1299.3,1125.2,953.41,796.3,658.06,523.76,387.72,266.67,160.58,43.559,-86.896,-199.87,-292.95,-401.17,-520.94,-619.28,-709.49,-810.94,-905.04,-994.56,-1100.4,-1213.4,-1323.6,-1432.4,-1532.8,-1631.4,-1744.3,-1861,-1966.2,-2072.7,-2191,-2309.7,-2429.9,-2558,-2683.1,-2814.6,-2963.5,-3098.7,-3214.8,-3342.6,-3473.3,-3598.2,-3732.3,-3862.3,-3982.5,-4109.2,-4233.3,-4349.8,-4467.5,-4580.3,-4692.3,-4806.7,-4913.6,-5024.9,-5146.6,-5263,-5379.2,-5500.6,-5619.1,-5743.5,-5877.7,-6008.3,-6134.9,-6266.2,-6400.1,-6523.7,-6629.9,-6726,-6798.6,-6808.4,-6726.8,-6517.4,-6140,-5598.4,-4909,-4074.9,-3136.6,-2153.8,-1154.4,-168.17,756.13,1592,2338,2988.8,3533.4,3969.1,4304.7,4560.7,4759.7,4911.7,5026.6,5119.9,5197.1,5264.9,5343.6,5441.3,5550.4,5660.2,5756.1,5831.1,5877.6,5874.7,5815.3,5705,5547.8,5363.9,5170.1,4968.4,4779.8,4615.4,4466.6,4350.1,4265.5,4187.1,4132.3,4109.4,4086.9,4066.2,4047,4003.6,3946.9,3887.6,3810.3,3722.2,3616.9,3476.5,3323.9,3169.4,3001.1,2830.5,2655.7,2464.3,2272.2,2084.7,1900.7,1733.8,1574,1409.6,1254.7,1109.2,965.34,829.24,697.41,565.32,439.8,322.32,213.14,109.39,-2.1324,-119.12,-223.47,-319.27,-422.76,-527.36,-627.73,-735.65,-839.48,-924.67,-1019.3,-1133.6,-1234.5,-1327.3,-1444.1,-1572.7,-1687.6,-1796.4,-1915.7,-2039.3,-2152.3,-2263.1,-2387.5,-2520.9,-2656.1,-2790.3,-2917.8,-3044.4,-3175,-3300.8,-3420.9,-3538.2,-3652.1,-3768.8,-3890.5,-4008.1,-4115.3,-4216.5,-4323.3,-4429.7,-4528.8,-4639.8,-4756.2,-4853.4,-4962.3,-5099.8,-5221.8,-5328.8,-5452,-5578.7,-5702.3,-5827.4,-5940.5,-6047.2,-6151.2,-6233,-6279.3,-6252.7,-6104.8,-5827.6,-5401.3,-4801.3,-4065,-3227,-2301.8,-1348.6,-411.98,503.85,1359.6,2118.3,2787,3360.3,3827.7,4206.7,4503.5,4718.4,4879,5005.6,5090.6,5145.9,5202.6,5263.4,5322.7,5395.9,5475.9,5535.6,5574.7,5582.9,5529.1,5419.2,5273.4,5092.1,4890,4682.5,4476.5,4299.3,4158.1,4030.8,3926.9,3861.9,3818.6,3790.9,3782,3776.9,3766.4,3750,3724.3,3687.1,3628.9,3543.8,3439.8,3316,3168.1,3005.9,2837,2663.7,2484.4,2288.7,2082.5,1888.1,1704.6,1521.2,1345.1,1179.7,1018.1,859.43,707.76,570.29,444.59,312.08,175.21,54.515,-60.26,-180.88,-289.99,-393.95,-512.25,-627.72,-732.41,-841.14,-942.65,-1033.9,-1140.6,-1257,-1359.3,-1458.8,-1571.9,-1689.8,-1801,-1907.7,-2022.4,-2149.4,-2276.8,-2402.8,-2534.6,-2661.4,-2778.1,-2900.1,-3025.2,-3145.5,-3272.3,-3400.6,-3518.6,-3637.4,-3756.6,-3867.6,-3983.7,-4104.7,-4222.8,-4345.7,-4467.9,-4587.5,-4715.8,-4838.3,-4954.8,-5085,-5209,-5327.4,-5473.5,-5619.6,-5740.6,-5867.5,-5991,-6089.3,-6185.9,-6271.3,-6307.5,-6277.5,-6141.1,-5852.2,-5401.1,-4785.2,-4020.8,-3164.2,-2252,-1287.6,-309.41,612.2,1451.6,2216,2877.3,3418.6,3876,4256.4,4538.6,4750.5,4923,5050.4,5144.3,5230.9,5319.1,5414.2,5516,5621.7,5736.7,5849.3,5935.2,5988,6000.6,5947.7,5820.4,5643.6,5446.4,5238.4,5022,4811.6,4628,4476.9,4347.3,4238.6,4162.5,4114,4076,4048,4033.5,4017,3983.4,3940.7,3893.8,3822.7,3722.6,3612,3485.7,3336,3176.6,3001.1,2809.6,2630.9,2457.6,2270.4,2086.8,1906.3,1721.5,1557.7,1413.2,1261.6,1111.1,975.68,845.29,711.73,583.95,475.66,374.61,260,147.58,48.761,-57.152,-168.85,-273.65,-381.14,-487.39,-582.01,-677.43,-777.18,-877.64,-989.76,-1105.4,-1205.8,-1307.2,-1424.5,-1540.1,-1651.4,-1775.9,-1905.8,-2023.1,-2135.8,-2259.9,-2392.3,-2524.7,-2660.2,-2796.5,-2924.6,-3058.3,-3208.5,-3349.2,-3471.8,-3600.3,-3732.2,-3850.3,-3964.6,-4089,-4213.9,-4319.4,-4414.5,-4530,-4652.4,-4750.7,-4845.9,-4957,-5066.7,-5174.8,-5285.2,-5387.3,-5489,-5602.6,-5725.2,-5848.3,-5969.1,-6102.6,-6245.2,-6366.2,-6477.9,-6603.4,-6713.5,-6796.6,-6857.4,-6839.4,-6686.8,-6390.1,-5927.7,-5289.7,-4511.8,-3618.8,-2633.9,-1621.4,-627.52,342.02,1251.8,2056.1,2752.8,3341.6,3821.9,4219.1,4535.2,4763.2,4942.2,5095.4,5214.8,5321.2,5430.6,5536.9,5652.6,5788.5,5935.7,6078.8,6196.9,6283.1,6331.6,6316,6229.2,6082.3,5883.4,5666.8,5457,5241.8,5037.4,4865.1,4707,4571.5,4482.1,4421.2,4377.7,4352.4,4323,4291.6,4272.8,4238.5,4174.9,4104.7,4027.4,3931,3813,3668.3,3513.4,3362.6,3191.2,3000.3,2819.4,2639.2,2454.3,2281.5,2107.4,1931.1,1773.1,1616.4,1452.4,1306,1173.2,1044.6,927.25,809.36,688.66,580.96,476.08,359.96,243.7,140.06,46.052,-54.244,-163.23,-263.93,-358.41,-458.66,-559.41,-661.95,-769.18,-870.45,-969.61,-1076.9,-1187.8,-1302,-1422.2,-1544.7,-1670,-1800.5,-1935.4,-2064.1,-2176.7,-2297.3,-2440.4,-2572.1,-2693.7,-2833.9,-2969.3,-3092.7,-3230.9,-3358.2,-3468.6,-3602.3,-3732.7,-3833.8,-3948.3,-4067.8,-4164.2,-4273.7,-4392.9,-4487.7,-4588.1,-4704.8,-4806.1,-4905.4,-5018,-5121.9,-5219.6,-5331.7,-5459.6,-5594.8,-5727,-5855.9,-5989.8,-6121.4,-6244.4,-6364.1,-6473.1,-6570.3,-6657.1,-6688.9,-6608.6,-6394.5,-6024.3,-5477.9,-4782.2,-3970.4,-3054.7,-2073,-1081.3,-113.29,798.79,1618.9,2337.7,2956.2,3464.2,3865.6,4183.5,4425,4589.3,4705.5,4802.4,4872,4916.9,4968,5029.8,5094.8,5177.7,5271.2,5346.9,5398.4,5414.5,5371.1,5271.2,5124.7,4932.4,4723.3,4534,4358.1,4180.9,4026.4,3915.2,3828.2,3756,3714.3,3694.9,3676.8,3666.8,3670.8,3666.1,3634.6,3583.1,3518.6,3432.8,3328.1,3214.4,3075.9,2909.8,2743.8,2568.7,2369.7,2184.3,2013.1,1817.1,1623,1457.1,1287.7,1115.7,962.86,813.39,666.99,536.78,410.04,285.75,171.87,55.853,-61.881,-169.86,-278.71,-393,-500.4,-605.87,-715.3,-815.6,-911.54,-1020.4,-1130.9,-1230.8,-1333.9,-1447.5,-1564.6,-1678.2,-1786.6,-1897.6,-2012.4,-2127.3,-2256.1,-2394.3,-2516.9,-2635.5,-2767.4,-2894.2,-3012.9,-3138.2,-3265,-3391.8,-3522.9,-3645.3,-3755.2,-3867.5,-3988.8,-4113.3,-4234,-4354.2,-4483,-4614.5,-4740.4,-4870.4,-5005.1,-5134.6,-5269.2,-5409.9,-5533.4,-5645,-5759.6,-5859.3,-5937,-5986.5,-5953.5,-5794.9,-5503.9,-5057.4,-4448.1,-3706,-2854.5,-1927.9,-974.52,-18.756,898.64,1726.4,2466.2,3116.2,3647.5,4079.7,4436.8,4704.5,4904.9,5065.9,5177.4,5261.4,5344.6,5414.3,5485.7,5572.8,5652.8,5738.1,5833.9,5895.4,5910.3,5880.1,5784.4,5642.9,5475.5,5262.6,5024.6,4810.2,4626.3,4458.3,4303.8,4175.7,4084.4,4023.9,3989.5,3970.7,3942.9,3910,3894.4,3879.4,3835.1,3767.6,3695.1,3609,3497.8,3369.4,3225.9,3067.5,2905.8,2731.3,2540.5,2361.2,2186.9,1998.9,1824.2,1664.2,1496.5,1341.6,1202.9,1056.9,914.17,778.61,643.96,529.77,427.04,310,194.13,87.063,-22.363,-124.38,-224.84,-338.4,-443.73,-533.97,-633.54,-740.02,-841.7,-944.4,-1042.8,-1141.2,-1261.3,-1387.1,-1496.6,-1612.3,-1738.4,-1855.6,-1978.5,-2110.1,-2227.9,-2349.5,-2489.1,-2617.6,-2735.5,-2864.7,-2993.4,-3116.2,-3244.5,-3374.1,-3501,-3623,-3734.7,-3850.5,-3982.6,-4115.2,-4237.6,-4355.8,-4474,-4593.6,-4716.6,-4844.9,-4982.5,-5129.3,-5273.8,-5408.2,-5543.2,-5685.9,-5823.7,-5951.2,-6070.2,-6171.3,-6243.7,-6261.7,-6174.8,-5955.6,-5595.5,-5074.1,-4399.6,-3611.2,-2737.5,-1810.8,-872.2,42.23,894.49,1664.1,2345.7,2921.1,3392.1,3784.2,4098.6,4334.7,4516.1,4658.6,4770.6,4864.9,4952.4,5046.2,5147.8,5250.2,5364.6,5490.1,5592.9,5658.4,5688.7,5660.3,5561.7,5420.3,5252.6,5057.1,4847.6,4643.2,4455.8,4295,4156,4038.6,3960.6,3913.3,3871.3,3840.8,3827.5,3820.7,3816,3792.2,3739.1,3683.4,3615.3,3510,3398.5,3287.2,3144.2,2987.9,2834.1,2662.3,2488.8,2329.6,2164.4,1996.5,1840.2,1689.9,1548,1408.2,1259.3,1122,1003,878.97,753.69,640.68,526.13,407.93,301.39,202.63,98.463,-11.606,-118.58,-218.5,-322.5,-432.5,-531.28,-623.5,-728.29,-835.89,-935.08,-1037,-1143.5,-1248,-1355.5,-1472.2,-1593.3,-1705.2,-1811.9,-1936.5,-2067.3,-2179.7,-2298.9,-2441,-2572.5,-2695.2,-2833.2,-2962.1,-3072.9,-3200.5,-3338.9,-3461.6,-3583.6,-3710.1,-3823.6,-3936.4,-4060.2,-4176.6,-4286.1,-4408.3,-4535.4,-4647,-4751.5,-4874.5,-5011.8,-5137.9,-5259.9,-5399.2,-5543.7,-5675.7,-5797.9,-5915.9,-6039.1,-6168.7,-6281.7,-6359.3,-6395.1,-6361.9,-6214.2,-5922.8,-5486,-4917.7,-4233.6,-3453.6,-2607.4,-1730.2,-855.66,-20.075,741.75,1418,2008.3,2499.7,2895.4,3217.9,3468.7,3654.4,3808.4,3938.8,4038.2,4127.3,4218.3,4302.5,4393.2,4502.5,4607,4689.5,4757,4792.8,4764.2,4676.8,4548.6,4379.6,4191.3,4013.2,3841.9,3677.6,3539,3428.1,3340.1,3280,3244.2,3219.8,3201.7,3193.9,3194.9,3190.2,3163.2,3112.5,3052.7,2987.9,2903.9,2797.8,2674.2,2531.6,2384.7,2241.9,2087.1,1925.8,1769.4,1607.9,1448.7,1299.3,1150.1,1013.3,890.88,766.45,649.46,538.01,419.6,309.55,204.79,95.775,-2.3467,-101.52,-206.16,-288.3,-367.12,-462.16,-539.97,-606.58,-693.19,-781.44,-857.66,-937.4,-1023.4,-1108.1,-1186.1,-1265.9,-1364.1,-1467.1,-1553,-1638.8,-1743.8,-1853.2,-1953.4,-2056.3,-2168,-2271.1,-2360.5,-2459.4,-2574.1,-2682.6,-2783,-2888.4,-2985.4,-3069.3,-3167.6,-3278.9,-3377.7,-3473.9,-3579.4,-3683.3,-3794.3,-3916.3,-4027.8,-4135.2,-4256.2,-4375.9,-4485.2,-4595,-4703.2,-4805.1,-4906.1,-5006.7,-5101.4,-5180.1,-5216.3,-5172.7,-5027.1,-4768.7,-4377.4,-3850.6,-3221.1,-2511.6,-1731.9,-917.88,-108.22,670.37,1376.2,1984.3,2514.2,2977.6,3361.1,3661.4,3886.6,4051.4,4180.3,4285.1,4358.8,4407.1,4452.1,4506.1,4566.1,4626.4,4677.5,4708.2,4717,4693.8,4607,4458.4,4295.6,4131,3940.4,3740.5,3565.8,3418.1,3297.6,3209.7,3145.8,3103.8,3083.2,3072.1,3071.1,3077.5,3075.3,3069,3059.4,3022.8,2962.1,2889.2,2792.4,2684.1,2578.8,2448.8,2291.2,2129.7,1957.1,1782.3,1629.1,1473.6,1298.7,1133.9,988.45,849.08,711.86,575.28,448.69,339.31,228.72,109.85,-1.1359,-102.04,-201,-303.88,-417.11,-528,-617.78,-699.49,-788.09,-874.25,-961.74,-1058.1,-1146.4,-1227.5,-1320.1,-1415.5,-1508,-1608.6,-1710.2,-1807.3,-1909.1,-2015.9,-2128.7,-2242.6,-2349.2,-2464.1,-2585.9,-2693,-2806.1,-2936,-3052.2,-3164.9,-3288.4,-3393.1,-3490.5,-3610.9,-3729.9,-3839.4,-3957.8,-4064.8,-4158.6,-4266.8,-4371.5,-4457,-4555.7,-4668.3,-4767.8,-4869.6,-4987,-5096,-5194.7,-5302.3,-5419.4,-5545.3,-5675.2,-5792,-5901.1,-6017.3,-6128.1,-6225,-6315.3,-6377.7,-6368.8,-6263.5,-6043.7,-5683.4,-5180.2,-4555.1,-3813.2,-2972.7,-2093.7,-1211.3,-331.46,503.66,1257,1932.1,2512,2984.6,3386.9,3734.4,4010.2,4225.4,4399.6,4543.7,4685,4836.9,4983.1,5121.6,5267.5,5420.4,5562.2,5678.6,5767.3,5822.7,5821.8,5747.6,5613.5,5447.6,5268.1,5080.1,4887,4703.7,4549.4,4428.2,4335.4,4270.3,4226.6,4199.8,4193.6,4196.5,4186.5,4159.9,4128.5,4097.9,4053.6,3980.5,3890.6,3791.9,3674.7,3549.8,3419.6,3261.6,3093.9,2941.9,2783.5,2619.9,2473.6,2324.4,2167.4,2030.3,1899.6,1758.1,1629.7,1519.6,1406.3,1291.4,1189.1,1093.2,988.59,879.09,776.41,675.46,576.45,493.55,416.08,324.41,231.71,148.23,58.993,-35.618,-123.22,-206.49,-291.16,-384.01,-490.86,-599.03,-700.4,-806.05,-915.09,-1022.2,-1136.6,-1257.9,-1380.6,-1507.5,-1630,-1747.7,-1878.2,-2012.4,-2133.2,-2256,-2386.4,-2509.7,-2630.7,-2752.8,-2867.4,-2982.9,-3104.5,-3216.5,-3317.9,-3420.7,-3524.7,-3629.3,-3735,-3832.1,-3919.6,-4013.2,-4118,-4221.7,-4320,-4416.4,-4509.2,-4607.4,-4722.5,-4837.7,-4940.5,-5052.8,-5179,-5301.3,-5424.4,-5549,-5663.8,-5777.3,-5888.8,-5979.6,-6048,-6076.4,-6017.4,-5844.2,-5541.2,-5091.8,-4512.2,-3825.1,-3032.4,-2168,-1292.5,-432.11,398.57,1163.1,1839.4,2424.5,2915.3,3324.6,3663.1,3924,4126.5,4300.3,4447.1,4578.8,4712.4,4838.2,4962.8,5106.3,5257.7,5397.9,5517.4,5607.3,5665.4,5681,5633.9,5523,5365.3,5187.7,5005.7,4815.4,4636.5,4493.4,4370,4264.3,4194.1,4141.7,4098.1,4080.6,4076.1,4068.7,4067.4,4058.9,4019.6,3962.6,3905.8,3832.2,3727,3612.9,3500.3,3366.5,3218.6,3078.3,2927,2757.1,2601.9,2465.8,2317.9,2159.4,2020,1895.2,1762.1,1636.7,1526.8,1403.3,1281.6,1188.1,1086.8,972.71,879.94,785.75,680.37,595.32,511.67,414.63,331.83,254.27,168.92,88.774,2.3399,-93.218,-182.2,-271.14,-358.43,-442.45,-540.96,-642.8,-737.78,-845.36,-954.84,-1052.5,-1156.8,-1263.7,-1365.7,-1477.2,-1591.4,-1699.5,-1811.5,-1923.2,-2027.2,-2129.7,-2237.8,-2353.2,-2461.4,-2559.1,-2664.3,-2762.9,-2842.7,-2934,-3032.1,-3112.7,-3201.6,-3301.6,-3378.9,-3447,-3526.6,-3605.8,-3684.5,-3765.2,-3844.8,-3936.9,-4040,-4131.1,-4217.1,-4323.9,-4447.5,-4566,-4673.8,-4777.4,-4884.1,-4998.2,-5110.4,-5210.7,-5304,-5382.6,-5413.8,-5367.3,-5222.9,-4964.5,-4581.6,-4075,-3464.6,-2774.2,-2025.6,-1257.9,-500.85,233.9,909.42,1496.6,2014.3,2465.8,2825.8,3100.5,3315.7,3485.5,3619,3721.6,3806.2,3894.4,3986.9,4069.4,4147.9,4239.4,4339.6,4422.6,4466.7,4468,4432.7,4363.8,4258.1,4119.5,3965,3813.4,3681.1,3571.4,3468,3375.6,3321.1,3296.6,3281.4,3282.9,3293.9,3298.8,3311.5,3324.9,3316,3296.6,3265.4,3201.2,3115,3016.9,2901.3,2776,2638.8,2491.3,2354.7,2217.4,2064.2,1918.4,1782.6,1640,1502.6,1379.6,1257.1,1126.7,997.78,886.85,785.85,675.04,566.85,472.36,374.41,271.91,178.45,92.34,7.2934,-80.478,-171.07,-259.58,-345.45,-429.13,-511,-594.57,-677.73,-760.84,-850.32,-941.36,-1027.7,-1115.4,-1210.3,-1310.2,-1408.6,-1505,-1606.8,-1709.3,-1809,-1919,-2034.3,-2139.1,-2246.2,-2364.1,-2481,-2599.6,-2721.7,-2836.3,-2950.3,-3068,-3178.9,-3292,-3412.3,-3520.5,-3618.9,-3724,-3829.5,-3933.6,-4038.9,-4135.7,-4231.9,-4337.2,-4438.8,-4540.5,-4650.6,-4755.4,-4861.2,-4977.8,-5085.3,-5191.2,-5319.4,-5446.5,-5557.9,-5678,-5799.9,-5902.7,-6001.3,-6096.7,-6156.3,-6156.2,-6072.3,-5871.1,-5544.7,-5098.8,-4530.1,-3860.5,-3131.8,-2364.3,-1571.4,-786.66,-46.985,625.62,1228.8,1763.9,2223.1,2606.1,2922.3,3178.7,3388.9,3571,3738.1,3892,4024.2,4151.1,4300.5,4455.3,4601.4,4756.7,4897,4997.2,5084,5142.6,5128.3,5061.7,4971.6,4851.6,4717.4,4592.4,4472.5,4354.2,4249.7,4170.4,4116.9,4082.1,4058.2,4040.3,4031,4030.7,4026.3,4008.2,3975.4,3930,3877.6,3810.4,3723.6,3634.3,3534.9,3409.1,3282.9,3160.5,3017,2873.9,2740.5,2587.3,2434.1,2305.8,2174.9,2037.3,1908.4,1775.9,1646.6,1534.1,1422.6,1312.3,1211.7,1106.3,999.33,904.98,810.74,711,617.45,525.97,429.75,337.51,252.83,165.77,72.779,-16.949,-103.63,-199.69,-302.07,-397.48,-490.9,-593.11,-697.45,-797.8,-903.14,-1012.5,-1117.9,-1236.2,-1371.3,-1486.5,-1584.8,-1705.9,-1832.8,-1941.9,-2063.2,-2197.9,-2314.5,-2423.8,-2546.4,-2672.4,-2791.7,-2908.2,-3029,-3149.6,-3260,-3371.5,-3492.6,-3604.8,-3701.7,-3799,-3902.5,-4008.4,-4111.8,-4208.3,-4304.6,-4408.6,-4514.9,-4613.9,-4707.6,-4806.9,-4912.2,-5015.6,-5119.4,-5226.9,-5337.6,-5458.7,-5592,-5729.1,-5865.2,-5994.5,-6119.6,-6251.4,-6383.7,-6506.7,-6621.6,-6719.6,-6789.2,-6809,-6730,-6520.2,-6178.1,-5704.1,-5117.3,-4433.9,-3653.7,-2821.9,-1989.4,-1161.1,-364.05,370.82,1048.7,1642.7,2132.8,2552.1,2897.1,3161,3388.1,3578.6,3721.7,3865.5,4017.4,4151.7,4294.7,4456.1,4611.5,4764.3,4912,5035.8,5129.7,5173.9,5159,5116.5,5050.3,4933,4788.3,4661.7,4546.6,4426.6,4322.4,4247.9,4191,4148.8,4125.9,4120,4122.7,4115.5,4093.1,4070.7,4040.9,3988.2,3928.4,3862.6,3771.8,3668,3561.3,3435.4,3294,3148.9,2994.7,2837.3,2680.6,2516.5,2358.8,2211.7,2053.3,1896.6,1762.4,1623.9,1475.4,1342.9,1218.7,1096.7,990.29,883.31,768.58,660.38,549.93,445.9,367.48,281.04,168.38,63.204,-27.79,-117.21,-204.75,-299.42,-396.93,-482.97,-572.07,-673.51,-770.2,-855.53,-941.91,-1041.8,-1147.7,-1243.7,-1340.6,-1451.3,-1565.8,-1684.6,-1809.2,-1922.7,-2028.5,-2144.9,-2263.1,-2370.5,-2475.5,-2582.5,-2691.2,-2808.5,-2923.3,-3017.2,-3112.7,-3228.2,-3333.7,-3428.9,-3543.3,-3652.1,-3738.9,-3838.9,-3950.8,-4056.2,-4170,-4284.3,-4388.1,-4507.2,-4637.6,-4751.2,-4858.6,-4974.1,-5086.4,-5185.8,-5264.9,-5309.9,-5300.2,-5211,-5021.5,-4701.2,-4226.5,-3633.9,-2973.1,-2236.9,-1435.7,-633.28,143.05,889.59,1567.5,2159.8,2675,3093.1,3414.1,3672.4,3871,4003.5,4095.4,4173.3,4244.1,4300.6,4348.3,4414.3,4491,4546.6,4601.3,4669.9,4698,4662.5,4603.2,4521.4,4389.9,4232.4,4083.2,3936.6,3789.9,3659.5,3553.2,3474.6,3422.8,3386.4,3364.4,3354.8,3340.2,3325.8,3325.8,3318,3286.2,3244.5,3189.6,3112.1,3027.4,2934.2,2811.9,2671.4,2528.5,2371.2,2202.3,2037.1,1866.1,1685,1504.1,1325.6,1161.6,1015.6,861.6,704.15,566.58,432.03,293.56,170.05,50.601,-72.342,-181.54,-283.74,-394.15,-509.04,-621.83,-721,-807.89,-904.83,-1007.9,-1101.8,-1202.2,-1310.7,-1406,-1498.2,-1602,-1704.4,-1803.7,-1910.9,-2019,-2120.9,-2223.9,-2330.7,-2440.8,-2557.1,-2675.8,-2787.8,-2899.7,-3022.2,-3144.4,-3258.6,-3375.5,-3488.2,-3590,-3702,-3823.3,-3936.5,-4048.7,-4160.9,-4271.8,-4393.7,-4510.4,-4608.8,-4713.3,-4829.6,-4954.2,-5089.7,-5208.7,-5311.5,-5436.3,-5566.5,-5674.5,-5777.5,-5879.1,-5973.6,-6055.8,-6088.1,-6043.7,-5904.3,-5627.4,-5208.2,-4670.6,-4009.5,-3248.8,-2433.6,-1574.7,-708.18,117.87,909.49,1645.6,2269.7,2794.7,3247.6,3602.4,3866.2,4079.5,4245.2,4372.1,4495.4,4609.3,4693.5,4777.8,4890.9,5013.9,5128.8,5239.6,5339.7,5413.1,5448.4,5439,5384.4,5285.7,5145.6,4981.2,4816.4,4665.2,4529.1,4405.5,4300.5,4221.4,4160.9,4113.1,4083.2,4064.4,4044.1,4022.6,4000.1,3973.1,3940,3888.1,3808.4,3716.3,3622.2,3511.1,3377.5,3231.2,3070,2894.7,2722.5,2559.5,2396.9,2226.9,2048.2,1872.2,1710.8,1557.2,1403.8,1251.3,1103.8,969.69,844.57,712.82,579.46,459.26,349.9,244.34,140.5,37.951,-62.845,-166.61,-274.83,-376.72,-468.71,-563.73,-670.85,-781.72,-883.4,-979.35,-1083.3,-1195.2,-1307.2,-1422.5,-1539.2,-1647.2,-1759.4,-1892.9,-2028.4,-2147.6,-2268,-2398,-2526,-2655.2,-2787,-2913.5,-3045.4,-3185.6,-3312.2,-3425.5,-3545.4,-3665.3,-3771.8,-3876.8,-3992.3,-4111.9,-4226.2,-4332,-4435.3,-4545.1,-4659.4,-4770.9,-4878.2,-4982.9,-5093.1,-5210.5,-5322.7,-5435.8,-5564.1,-5689.8,-5804.8,-5926.1,-6044.2,-6147.4,-6245.7,-6325,-6358.2,-6325.5,-6180.6,-5886.3,-5455.8,-4901.7,-4227.1,-3463.1,-2633.4,-1748.1,-858.47,-17.392,768.76,1482.6,2094.8,2616.8,3054.6,3395,3656.6,3855.7,3992.6,4098.3,4196.5,4280.6,4355.9,4435,4526.8,4633.3,4733.7,4823,4909.2,4962.3,4961.4,4920.2,4834.7,4707.2,4563,4405.7,4237.8,4081,3942.2,3824.4,3739.3,3678.1,3620.3,3574.7,3557.9,3552.9,3540.4,3524.5,3494.4,3443,3392.6,3340.8,3267.8,3175.7,3057.6,2915.1,2773.5,2622.2,2448.1,2274.8,2105,1935.6,1777.2,1609,1428.8,1272.3,1133.4,992.76,856.46,716.77,582.68,476.3,373.99,260.26,155.34,53.762,-53.487,-153.04,-248.48,-345.63,-434.08,-518.64,-609.96,-697.68,-774.87,-857.22,-953.43,-1052.9,-1152.5,-1252.7,-1346.5,-1443,-1551.7,-1662.2,-1776.6,-1897.8,-2005.5,-2104.4,-2219.8,-2349.7,-2476.4,-2586.9,-2689.6,-2809.9,-2934.6,-3042.3,-3161.6,-3295.6,-3410.8,-3525.2,-3658.8,-3785.1,-3905.3,-4037,-4169,-4300.8,-4439.4,-4574.4,-4707.5,-4836.8,-4946.4,-5050.6,-5167.4,-5272.7,-5344.2,-5375.9,-5335.1,-5176.2,-4878.4,-4447.6,-3895.7,-3230.4,-2474.4,-1665.7,-830.12,6.3941,799.79,1516.3,2144.4,2681.5,3128.5,3483.2,3752.5,3952.4,4091.9,4187.9,4263.1,4320.8,4371.8,4435.5,4501.8,4560.4,4621.7,4682.1,4726.7,4743.2,4721.9,4663.4,4561.8,4406.3,4215.3,4021.1,3839.1,3667.4,3502.8,3362,3259.1,3182.4,3126.8,3090.1,3056,3031.6,3025.4,3020.3,3011.4,2989.4,2936,2866.9,2789.2,2687.6,2570.9,2435,2268.8,2100.5,1938,1762.2,1578.5,1384.5,1183.9,1006.6,842.42,668.36,504.01,349.78,196.39,63.942,-62.671,-206.11,-332.56,-437.64,-558.91,-682.95,-789.13,-898.73,-1012.7,-1118.6,-1225.1,-1329.3,-1427.6,-1531.8,-1633.7,-1723.7,-1819.8,-1927,-2030.3,-2133.1,-2247,-2364.8,-2473.9,-2578.3,-2685.3,-2796.9,-2921,-3051.9,-3168.6,-3278.6,-3400,-3524,-3644.8,-3764.6,-3878.6,-3995.5,-4123.2,-4252.8,-4380,-4500.7,-4621.6,-4762.2,-4905.3,-5027.4,-5151.4,-5292.1,-5433.8,-5567.9,-5691.4,-5813,-5938.6,-6047.1,-6140.4,-6235.3,-6297.8,-6286.1,-6180.8,-5949.5,-5577.5,-5073.5,-4433.4,-3669.4,-2818.8,-1918,-1010.5,-131.74,703.32,1467.8,2133.6,2699.9,3175.7,3561.9,3860.3,4089.3,4269,4408.2,4531.6,4661.1,4781.1,4892.4,5016.6,5141.3,5261.5,5388.2,5496.1,5565.7,5602.3,5586.6,5503,5368.8,5203.6,5019.2,4823.4,4632,4460.4,4294.8,4138.4,4027.1,3953.8,3891,3844.7,3809.5,3777.9,3759.9,3736.3,3692.1,3647.3,3589.3,3489.9,3371.2,3253.8,3123,2981.7,2838.3,2671.5,2487,2320.1,2159.8,1985.7,1819.9,1658.9,1488.3,1338.7,1208.3,1057.9,901.86,763.46,629.53,495.1,357.49,212.12,72.114,-62.421,-203.28,-343.05,-474.37,-603.94,-736.74,-867.29,-988.15,-1105.5,-1224,-1337.8,-1457.6,-1588.6,-1709.4,-1820.5,-1938.6,-2058.1,-2178.3,-2304.2,-2424.5,-2537.5,-2654.6,-2776.6,-2897.2,-3012.7,-3128.9,-3253.6,-3376.8,-3494.3,-3614.8,-3730.1,-3837.3,-3954.4,-4077.5,-4195.9,-4319.4,-4443.5,-4558,-4675.7,-4802.3,-4928.6,-5055.1,-5184.4,-5316.3,-5452.2,-5584.2,-5702.6,-5808.3,-5910,-6017.3,-6120.7,-6190.1,-6201,-6131.9,-5946.2,-5611.6,-5125.4,-4504.3,-3763.1,-2924.3,-2033.7,-1132.8,-244.5,596.24,1356,2029.1,2602.6,3062.9,3434.5,3737.4,3966.4,4135.1,4262.2,4356.4,4445.1,4546.5,4648.5,4754.1,4876.6,5004,5114.6,5197.9,5247.8,5253.3,5200.3,5092.1,4946.3,4767.7,4561.1,4348.2,4150.9,3985.7,3857.8,3755.1,3672.5,3619.9,3595.2,3581.5,3566.6,3554.3,3548.5,3532.4,3492.6,3440.7,3375.5,3275.1,3139.6,2987.8,2829.1,2662.2,2486,2306.9,2128.8,1946.6,1765.3,1594.4,1424.7,1253.5,1094.8,943.88,789.59,643.89,513.62,385.12,253.83,129.12,15.2,-94.366,-210.09,-330.95,-442.61,-543.41,-646.9,-753.15,-853.22,-951.6,-1052.1,-1150.6,-1252.6,-1359.7,-1461.4,-1563.8,-1675.8,-1786.3,-1896.6,-2017.3,-2135,-2248,-2370.8,-2494.2,-2612,-2732.1,-2845.8,-2959.5,-3094.5,-3230,-3343.8,-3458.8,-3588.6,-3716.3,-3837.2,-3967.6,-4112.9,-4250.2,-4372,-4510.7,-4666.6,-4799.9,-4917.1,-5045.5,-5170.1,-5280.2,-5389.3,-5492,-5574.2,-5627.6,-5627.4,-5539,-5329.9,-4970.6,-4456.8,-3815.4,-3072.7,-2238.1,-1338.9,-437.59,424.15,1242.2,1984.8,2610.1,3132.8,3572.8,3920.4,4193.3,4418.6,4592.1,4722.2,4837.6,4949.1,5055.6,5158.4,5262.7,5376.4,5496.6,5606.2,5683.1,5708.1,5677.7,5589.4,5433.9,5229.8,5014,4793.5,4568.7,4364.9,4201.6,4072,3963.6,3878.6,3825.5,3796,3772.2,3752.3,3738.5,3720.4,3692.3,3656.2,3599.1,3509.3,3398.9,3279.3,3146.2,2998.8,2835.6,2658,2483.3,2310,2121.5,1933.5,1759.2,1585,1421.2,1275.3,1120.8,964.74,831.62,702.13,567.53,444.76,322.76,201.13,100.56,-1.4759,-125.15,-238.22,-332.94,-436.26,-542.01,-635.45,-725.41,-816.64,-910.99,-1010.1,-1107,-1207.8,-1319.6,-1427.4,-1526.9,-1631.2,-1742.4,-1857.2,-1975.2,-2097.8,-2223.8,-2345,-2461.5,-2579.3,-2694.5,-2818.2,-2957.5,-3087.1,-3207.5,-3336.7,-3454.1,-3559,-3679.1,-3801.4,-3911,-4021.8,-4137.1,-4251.4,-4354.1,-4443.2,-4543.3,-4653.7,-4752.9,-4850.8,-4947.6,-5036.7,-5139.6,-5253.9,-5363,-5481.1,-5605.4,-5722,-5840.4,-5961.2,-6083.9,-6209,-6319.9,-6422.4,-6526.6,-6601.2,-6621.9,-6568.8,-6393.6,-6074.6,-5605.8,-4964.4,-4171.2,-3278.4,-2308.5,-1294.8,-297.34,643.61,1505.4,2267.7,2921,3467.7,3917,4278.3,4563.6,4789.1,4965,5107.8,5245.1,5384.8,5520.4,5657.9,5805.8,5966.8,6133.9,6286.1,6407.9,6491.5,6524.1,6496,6399,6230.4,6019.2,5798.2,5574.3,5359.5,5171.1,5008.1,4871,4767.4,4693.9,4642.3,4607.5,4588.5,4580.1,4562.4,4526.5,4487.5,4437.9,4355.4,4253.1,4146.4,4021.7,3877.3,3719.8,3546.6,3374.5,3215.8,3047.6,2868.6,2705.2,2550.6,2385.7,2221.6,2073.4,1937.1,1803.1,1673.8,1557.2,1439.8,1311.9,1191.9,1080.7,968.5,870.4,775.21,659.39,553.35,469.03,367.45,256.66,168.92,81.608,-26.099,-130.72,-221.56,-318.86,-428.47,-533.04,-631.73,-738.88,-851.72,-965.73,-1083.3,-1199.3,-1320.1,-1449.9,-1570.1,-1684.9,-1815.3,-1952.1,-2084.7,-2211.4,-2332.8,-2471.5,-2620.1,-2736.4,-2839.6,-2969.7,-3101.8,-3221.6,-3349.9,-3476.5,-3589.5,-3700.5,-3807.4,-3910.5,-4019,-4125.2,-4228.6,-4340.6,-4449.5,-4546.1,-4642.4,-4740.1,-4838.5,-4946.3,-5052.1,-5145.8,-5245.4,-5353,-5456.3,-5564,-5684.1,-5813.4,-5948.2,-6071.6,-6183.6,-6311.3,-6452.9,-6583.8,-6700,-6806.6,-6906.8,-6983.4,-6988,-6891.9,-6678.9,-6299.2,-5730,-5005.4,-4150.6,-3190.9,-2176.9,-1146.8,-136.29,808.39,1663.9,2413.2,3042.3,3565.3,3983.3,4290.2,4526.2,4719.7,4858.6,4960.2,5054.1,5143.6,5236.9,5338.9,5447,5566.9,5684.5,5789.2,5891.1,5956.6,5943.9,5871.8,5750.5,5571.5,5368,5164.8,4956.7,4763,4598.9,4451.4,4325.2,4238,4183.1,4142.8,4110.3,4091.6,4087.7,4079,4052.7,4017.8,3968.4,3892.1,3802.8,3697.8,3556.4,3401.7,3256,3091.7,2907.3,2731,2556.2,2375.2,2204.1,2044,1885,1722.9,1561.4,1414.8,1284.2,1155.6,1028.7
-285.59,-328.16,-356.13,-361.89,-413.18,-522.97,-580.19,-581.67,-620,-692.29,-756.39,-831.03,-936.82,-1019,-1034.8,-1066.6,-1154.7,-1205.2,-1231.2,-1329.5,-1445.6,-1506.9,-1555.3,-1621.8,-1717,-1849.2,-1974.9,-2064.5,-2144.7,-2230.5,-2299.8,-2340.3,-2376.7,-2391.4,-2321.3,-2182.1,-1991.8,-1705,-1375.2,-1074.9,-753.79,-404.1,-60.723,281.87,568.9,795.63,1037,1232,1337.8,1438,1494.5,1464.1,1443.4,1439.1,1413.6,1388.7,1314.5,1214.3,1211,1218.2,1118.5,1038.7,1030.5,969.79,873.18,828.97,812.21,813.35,830.71,806.97,787.35,837.91,873.41,881.21,946.08,987.05,957.5,995.8,1069.4,1026.6,947.21,949.87,991.68,1033.7,1040.5,949.46,815.62,736.56,681.21,589.86,496.46,437.32,363.9,238.8,127.36,77.162,22.124,-73.838,-152.31,-194.25,-230.88,-280.2,-372.77,-487.85,-537.1,-552.2,-637.27,-739.78,-786.76,-832.59,-874.61,-869.59,-872.37,-890.65,-886.71,-910.87,-945.34,-926.33,-952.26,-1068.9,-1146.7,-1175.6,-1247.6,-1344.3,-1423,-1496.9,-1599.7,-1719.2,-1758.7,-1749.4,-1856.3,-2016.5,-2087.6,-2161.7,-2272.5,-2318.9,-2339.7,-2369.6,-2350,-2288.4,-2159.9,-1906.4,-1584.4,-1250.1,-901.21,-546.19,-177.71,186.59,518.58,859.19,1200.6,1462.7,1636.9,1754.1,1829.6,1879.5,1897,1900.8,1920.2,1896.7,1811.5,1758.9,1746.3,1704.9,1662.3,1646.1,1597.7,1516.3,1473,1466.4,1454.5,1448.1,1425,1347.6,1319.3,1404,1440,1379.3,1392.1,1470.7,1496.2,1515.7,1543.1,1518.6,1499,1521.5,1533.6,1493.6,1374.7,1259.1,1234,1182,1072,1041,1032.6,949.16,849.1,725.7,581.95,486.87,388.5,269.36,193.82,119.53,36.967,-10.378,-75.208,-162.57,-230.01,-309.43,-393.86,-458.67,-530.47,-593.43,-626.14,-643.72,-662.65,-710.79,-761.04,-783.66,-844.15,-939.11,-1011.1,-1090.3,-1148.5,-1152.9,-1189.2,-1249.6,-1298.5,-1409,-1530.8,-1593.4,-1689,-1808.1,-1875.5,-1948.4,-2037,-2122.6,-2261.1,-2408.5,-2504.4,-2619,-2759.5,-2863.2,-2963.4,-3092.3,-3204.9,-3290.3,-3371.2,-3394.7,-3288.8,-3090.1,-2852.2,-2545.1,-2174.1,-1784.3,-1360.1,-903.04,-445.5,33.007,521.1,945.62,1283.7,1559.5,1781.7,1947.4,2071.7,2180.2,2250.9,2257.8,2248.2,2245.9,2208.4,2138.4,2081.6,2062.1,2074.6,2087,2094.6,2098.8,2053.3,1978.8,1961.3,1985.5,1991.4,1983.2,1979.3,1982.1,1966.6,1931.6,1947.4,2003,2007.2,1993.6,2032,2081.2,2098.4,2088.5,2060.1,2019.1,1959.9,1890.7,1815.7,1716,1620.8,1557.1,1489.7,1414.8,1330.5,1200.8,1065.5,975.31,884.6,762.31,651.44,578.97,502.27,385.19,286.61,252.18,224.55,159.38,64.413,-20.788,-53.482,-116.97,-266.46,-338.94,-317.57,-413.92,-581.99,-642.73,-682.37,-770.82,-811.25,-842.01,-947.47,-1059.2,-1147.3,-1260.1,-1359.6,-1406.9,-1449.1,-1503.8,-1547.5,-1596.4,-1684.4,-1798,-1880,-1926.1,-2007.4,-2130.2,-2239.1,-2351.1,-2491.8,-2626.4,-2737.3,-2821.5,-2885.6,-2960.1,-3036.5,-3106,-3189.3,-3253.2,-3289.3,-3346.3,-3376,-3315.8,-3203.7,-3036.9,-2775.6,-2435.7,-2021.1,-1537.3,-1027.1,-516.36,-30.476,424.19,874.29,1263.9,1520.7,1715.3,1928.1,2116.5,2228,2272.5,2284.8,2286,2256.3,2191.9,2147,2126.4,2082.9,2060.6,2098.1,2104.9,2064.6,2059.4,2060.4,2034,2010,1946.5,1878.3,1899.9,1915.6,1878.4,1897,1922.2,1916.2,1984.4,2062.4,2065.6,2070.3,2061.1,2019.1,2013.6,1985.3,1895.4,1823.5,1755,1687,1670.4,1624.6,1506.2,1416.8,1365,1273,1158.6,1073.9,978.3,838.41,729.66,654.56,518.22,382.98,337.88,290.86,205.68,143.51,102.5,98.752,104.69,21.824,-94.775,-171.13,-274.24,-373.37,-394.49,-424.15,-522.93,-628.94,-691.01,-719.16,-776.72,-870.67,-924.98,-963.03,-1045.3,-1113.6,-1156,-1227.3,-1283.2,-1309.5,-1380.3,-1469.3,-1520.8,-1574.3,-1647.5,-1725.1,-1818.2,-1910.2,-2010.5,-2154,-2273.7,-2341.1,-2466.2,-2640.2,-2750.3,-2832.2,-2930,-2973.2,-2961.2,-2935.4,-2841.7,-2638,-2356.1,-2018.5,-1635.2,-1237.9,-830.57,-372.73,104.55,513.35,887.79,1255,1482,1584.5,1738.6,1883.7,1892.1,1858.9,1845.4,1810.9,1773.1,1711,1593.8,1486.6,1427.4,1393.9,1354.5,1277.2,1205.6,1175.4,1111.3,1017.7,992.75,1009.5,992.98,965.74,955.08,957.69,992.65,1057.5,1109.9,1144.1,1186.7,1229.4,1265.5,1309.7,1339.5,1351.1,1372.4,1365.9,1333.2,1344.8,1342.1,1263,1193.9,1117.1,941.09,753.16,633.11,540.04,477.5,419.98,313.5,221.35,161.63,64.244,-34.266,-116.69,-240.64,-328.55,-343.45,-426.31,-548.42,-570.19,-592.52,-702.79,-779.57,-803.79,-851.32,-902.45,-952.87,-1006.9,-1021.5,-1022.9,-1043.1,-1072.3,-1139.5,-1199.3,-1192.3,-1221.6,-1310.3,-1368.5,-1471.5,-1640.6,-1723.8,-1755.7,-1857.5,-1964.8,-2028.3,-2098.1,-2187.6,-2279.6,-2352.3,-2437.6,-2584.3,-2698.8,-2707.3,-2696.1,-2655.2,-2507.2,-2307.6,-2047,-1643.4,-1196.2,-806.77,-396.55,60.148,495.4,913.21,1301.3,1583,1784.8,1979,2108.7,2142.1,2182.1,2234.1,2189.2,2071.9,1979.2,1902.1,1812.4,1728.5,1654.2,1584.1,1525.5,1472.4,1400.3,1297.1,1199.7,1151.6,1132.3,1108.4,1089.3,1081.7,1083.9,1114.7,1175.6,1231.7,1259.7,1273.8,1288.9,1309.3,1351.5,1386.3,1362.4,1343.8,1374.8,1338.7,1227.1,1170.4,1138.7,1056.6,965.04,861.61,735.98,623.57,498.08,360.17,244.55,123.8,28.455,-20.33,-135.18,-318.19,-438.36,-491.49,-543.32,-604.66,-674.64,-735.51,-769.53,-804.4,-861.69,-909.41,-922.34,-939.37,-982.65,-1034.7,-1124.1,-1224.1,-1249.5,-1274.4,-1368.7,-1423.9,-1443.7,-1514.7,-1565.4,-1592.4,-1702.8,-1840.9,-1912,-1963.6,-2039.9,-2122.6,-2211.6,-2299.1,-2345.9,-2393.9,-2541.1,-2728.2,-2833.1,-2913.4,-3029.2,-3124.4,-3221.3,-3357.2,-3480,-3580.6,-3660.3,-3681.1,-3664.7,-3616.1,-3459.9,-3169.2,-2787.4,-2343.8,-1842.2,-1303.9,-772.82,-255.18,249.64,693.8,1074.9,1424.4,1710.7,1931.3,2104,2184.4,2217.8,2288.3,2304.8,2213.7,2137.3,2105.5,2066.5,2035.2,1982.6,1911.3,1924.9,1963.6,1897.8,1837.8,1865.3,1833.6,1732.1,1710.2,1739.4,1714.4,1678.2,1695.9,1745.8,1784.1,1794.9,1817,1880.6,1924.1,1914.1,1922.2,1956.6,1931.3,1844.1,1762.9,1698,1637.6,1587.1,1520,1414.8,1314.7,1251.6,1179.1,1062.1,940.83,852.94,787.06,708.33,582.35,441.37,359.8,309.7,217.2,107.88,12.972,-88.414,-166.2,-190.05,-208.26,-260.65,-338.34,-421.45,-494.53,-567.08,-644.32,-701.91,-750.03,-820.29,-890.12,-929.79,-960.75,-1024.6,-1138.6,-1255.6,-1314.7,-1354.1,-1433.6,-1507.9,-1535.8,-1574.5,-1669.4,-1783.3,-1867.9,-1945.5,-2059.5,-2166,-2214.8,-2264,-2358.4,-2465,-2575.2,-2697.8,-2834,-2989.9,-3123.3,-3191.4,-3200.5,-3150.4,-3075.2,-2985.4,-2769.1,-2410.4,-2018.7,-1576.9,-1053.4,-502.11,72.43,597.33,991.6,1377.1,1784.8,2071.4,2262.5,2424.6,2496.9,2512.5,2548.1,2566.8,2525.7,2434.6,2349.8,2324.5,2306.4,2250.1,2206.9,2171.9,2098.8,2040.7,2034.2,1992.6,1890.3,1825.2,1807.9,1771.4,1742,1747.1,1759.4,1800.3,1869.8,1920,1952.8,1982.1,2013.5,2042.6,2028.8,1995,1993.6,1993.6,1988.5,1973.4,1888.8,1778.6,1691.7,1574.8,1463.6,1396.2,1293.7,1155.5,1023.8,871.75,710.06,556.32,397.44,268.11,198.17,154.47,76.04,-54.124,-169.31,-243.68,-317.86,-371.83,-405.83,-469.07,-526.58,-561.48,-629.63,-720.14,-815.06,-930.94,-1021.6,-1056.2,-1074.1,-1104,-1166.7,-1260.3,-1339.3,-1404.4,-1492.4,-1581,-1637.3,-1688.3,-1769.2,-1871.1,-1974.2,-2073.8,-2154.9,-2211.5,-2281.5,-2392.8,-2521.4,-2642.8,-2754.3,-2861.5,-2977.1,-3088.5,-3170.2,-3251.2,-3360.5,-3466.8,-3564.5,-3662.8,-3703.3,-3643,-3487.3,-3223.5,-2869.8,-2458,-1965.9,-1415.1,-850.7,-256.67,307.67,758.87,1169.5,1571.5,1864.6,2062.1,2236.3,2350.6,2404.2,2454.9,2477.9,2438.3,2372.1,2315.4,2284.6,2272.4,2244,2213.6,2214.7,2204.4,2156.7,2120.1,2097,2055.6,2004.6,1949.1,1921.1,1965.4,2006,1967.6,1931.8,1949.9,1949.2,1916.6,1920.8,1962.3,1969.4,1944.4,1980.3,2058.1,2044.4,1965.6,1947.7,1924.3,1794.2,1658.5,1576.3,1447.5,1290.8,1199.2,1102.1,949.71,834.18,757.51,659.39,572.27,499.98,397.06,282.29,185.73,105.64,37.897,-20.966,-60.766,-94.806,-157.36,-230.3,-301.66,-384.81,-437.03,-457.81,-517.11,-597.99,-660.89,-748.24,-865.16,-957.52,-1007.4,-1040.5,-1090.3,-1150.7,-1209.5,-1307.5,-1425.4,-1489.6,-1564,-1716.3,-1840.3,-1897.5,-1973.6,-2046.1,-2085.5,-2155.8,-2235.3,-2290.3,-2384,-2506.2,-2609.3,-2718.3,-2819.1,-2902.3,-3003,-3092.8,-3191.1,-3350.3,-3477.7,-3528.1,-3572.3,-3586.6,-3554.3,-3481,-3272.1,-2948,-2601.3,-2174.5,-1673.5,-1164.9,-607.74,-69.75,375.15,843.59,1300.7,1604.1,1847.7,2093.5,2233.6,2285.7,2335.4,2368.6,2360.8,2323.9,2295.9,2297.8,2292.4,2263.9,2230.6,2203.1,2216.4,2243.2,2196.6,2133,2140.4,2131,2046.7,1967,1922.3,1893.5,1883.4,1884.8,1887.2,1858.1,1800.4,1811.1,1878.1,1895.1,1912.6,1960.9,1949.2,1924.4,1929.7,1884.4,1829.2,1785.2,1673.4,1581.8,1542.3,1418.6,1279.9,1206.7,1073.8,920.3,851.8,768.41,645.2,545.59,429.69,317.4,257.47,200.1,145.23,100.24,13.779,-62.422,-82.556,-133.16,-230.91,-322.93,-411.66,-474.87,-510.91,-570.46,-624.98,-669.4,-744.97,-760.05,-718.09,-811.51,-983.87,-1026.5,-1021.6,-1108.5,-1210.7,-1247.7,-1262.3,-1344.3,-1491.4,-1585,-1620.9,-1705,-1816.3,-1891.5,-1958.2,-2053.5,-2174.1,-2267.9,-2326.1,-2432.6,-2573.2,-2674,-2773.4,-2874.4,-2952.5,-3067.5,-3182.8,-3243.2,-3328.2,-3407.8,-3372.6,-3252.6,-3069.8,-2809.1,-2494.1,-2087.3,-1595.8,-1112.5,-613.83,-72.403,420.93,846.92,1225.1,1506,1719.6,1941.9,2114.3,2165.8,2168.8,2182.9,2152.1,2076.6,2028.1,1975.3,1864.2,1750.8,1686.6,1659.2,1637.5,1591.4,1550.6,1547.9,1527.3,1463.5,1404.6,1356.2,1306.8,1278.9,1291.7,1334.5,1366.4,1395.6,1483.7,1595.5,1651.4,1671.8,1684.9,1676.7,1660.5,1653.9,1658.1,1650.3,1595.4,1528.5,1484.3,1405.5,1285.5,1193,1115.3,1005,879.58,763.25,653.72,546.94,438.35,335.97,255.63,185.27,105.74,31.774,-23.44,-74.472,-133.76,-211.93,-300.59,-366.7,-428.68,-508.29,-554.73,-572.41,-608.55,-635.82,-681.65,-791.05,-864.51,-881.27,-950.01,-1036,-1082.8,-1151.4,-1218.8,-1246.8,-1308.8,-1400,-1454.9,-1513,-1605.6,-1695.8,-1786.8,-1889.7,-1988.5,-2097.9,-2219.4,-2332.7,-2465.3,-2608.4,-2706.5,-2796.7,-2904.6,-2970.2,-3020.9,-3066.3,-2990.8,-2795.8,-2547.3,-2218,-1860.3,-1497.3,-1010.6,-464.22,1.2374,464.76,948.78,1363.4,1744.5,2083.4,2297.7,2444,2565.4,2590,2525.8,2461,2413.7,2335.5,2227.4,2163.2,2151.1,2132.2,2103.9,2061,1978.4,1900.5,1844.5,1769.4,1697.8,1656.2,1614.8,1568.7,1537.6,1542,1576.6,1578.7,1556.5,1597.8,1672.4,1715.6,1781.4,1855.7,1835.1,1764,1752,1760.1,1709.6,1623.2,1546.4,1464.1,1345.5,1215.6,1118,1019.7,868.12,698.97,556.79,432.65,342.4,276.97,161.22,15.466,-69.17,-122.37,-207.78,-301.73,-390.45,-478.79,-543.65,-590.33,-629.27,-648.8,-681.8,-755.12,-831.65,-902.25,-976.38,-1013.9,-1027.6,-1095,-1196.6,-1264.7,-1331.8,-1428.9,-1509.5,-1578,-1680.8,-1795,-1885.8,-1962,-2031.5,-2109.7,-2204.4,-2279.1,-2338,-2431.5,-2540.4,-2635.4,-2739.1,-2815,-2853.6,-2966.6,-3136.5,-3227,-3286.9,-3396.4,-3485.4,-3564.3,-3693.8,-3804.7,-3849,-3846.9,-3794.2,-3686.6,-3467,-3089.7,-2650.7,-2183,-1619.4,-1015.7,-415.07,207.01,739.8,1140.8,1545,1923.6,2158.3,2324.2,2484.1,2570.7,2591.4,2604,2599,2568.8,2532.6,2492.5,2450.9,2414.3,2382.7,2374.4,2398.4,2416,2414.2,2435.6,2469.8,2448.2,2371.9,2299.8,2249.5,2207.8,2181.6,2195.4,2246.6,2286.2,2295.7,2311.3,2330.9,2333.8,2344.7,2357.4,2341.3,2318.2,2289.7,2226.5,2155.7,2096.1,2001.9,1852.8,1700.1,1602.8,1536.7,1437.7,1325.6,1225.8,1104.8,989.08,895.48,768.99,642.35,553.84,447.63,350.56,299.73,234.73,179.27,157.22,84.283,-12.477,-69.541,-145.14,-229.54,-279.85,-347.56,-417.36,-456.43,-530.04,-633.09,-710.18,-773.9,-815.81,-850.39,-943.23,-1054.6,-1124.9,-1194.8,-1277.6,-1371.1,-1500.5,-1618.2,-1699.1,-1802.5,-1907.1,-1973.2,-2062.1,-2184.6,-2279.5,-2337.2,-2384.1,-2470.3,-2617.1,-2740.5,-2808.4,-2915.8,-3072,-3187.4,-3266.8,-3384,-3525.4,-3611.3,-3646.2,-3700.8,-3743.1,-3691.3,-3568.8,-3389.8,-3082.8,-2654.2,-2174.1,-1639.6,-1065.2,-527.09,-20.94,482.21,913.29,1254,1575.2,1847.5,2020.8,2167.3,2292.5,2307.6,2271.3,2295.4,2307,2219.5,2126.9,2105.8,2084.6,2027.8,1983.7,1951.7,1915.9,1879.9,1814.2,1745.8,1743.4,1751.5,1719.7,1721.7,1759.6,1770.7,1776.2,1775.4,1744.8,1745.3,1800.5,1847.7,1863.3,1863.2,1866.3,1888.3,1908.1,1902.3,1872.1,1823.2,1767.4,1691.7,1585,1485.7,1380.2,1235.7,1129.2,1078.8,977.12,826.53,710.43,623.81,543.55,470.05,389.12,305.73,235.9,173.18,107.08,38.26,-29.732,-99.578,-164.65,-219.3,-281.14,-336.03,-355.25,-376.96,-427.32,-472.83,-501.49,-518.83,-542.86,-593.98,-642.93,-698.24,-792.05,-861.85,-910.98,-1016.5,-1098.4,-1104,-1153.2,-1260.8,-1353.1,-1433.8,-1482.3,-1503.7,-1572.4,-1655.9,-1701.5,-1773.6,-1897.8,-2037.4,-2184.7,-2319.1,-2433.9,-2547.2,-2635.6,-2699.4,-2775.5,-2857.9,-2951.8,-3053.6,-3095.3,-3073.8,-3031.2,-2916.5,-2692.9,-2391.3,-2004.1,-1538.9,-1045.7,-530.01,-8.251,459.26,877.7,1286.3,1639.6,1888.1,2082.1,2255.5,2360.6,2384.7,2352.3,2284.2,2237.6,2199.1,2092.5,1993.3,1973.7,1934,1878.4,1870.1,1798.9,1676.8,1651,1626.8,1520.1,1482.2,1513.9,1489.3,1455.1,1455.7,1459.7,1498,1563.4,1607.2,1643.2,1673.4,1698.4,1747.8,1786.6,1778.8,1763.6,1762.9,1756.1,1721.2,1659.8,1588.9,1490,1365,1268.3,1191.6,1078.3,915.16,741.4,634.31,571.53,457.5,354.65,302.16,185.99,49.31,-34.72,-160.04,-273.67,-286.73,-310.34,-351.93,-368.69,-444.81,-530.81,-571.93,-661.78,-744.83,-766.5,-831.88,-893.49,-900.91,-956.41,-1004.9,-1010,-1110.5,-1228.1,-1234.7,-1283.9,-1423.2,-1504,-1546.5,-1629.8,-1705.9,-1755.4,-1817.5,-1891.9,-1958.6,-2025.7,-2113.6,-2213.2,-2301.9,-2381.4,-2469.7,-2589.2,-2708.6,-2764.4,-2819.7,-2951.2,-3072.4,-3155.9,-3282.2,-3414.8,-3536.3,-3707.2,-3837.5,-3834.3,-3773.1,-3687,-3523,-3259.3,-2904.2,-2482.2,-1991.7,-1441.5,-899.18,-352.63,226.52,731.79,1137.8,1528.6,1866.5,2107.7,2283,2379.5,2416.8,2425.4,2370,2307.3,2310.2,2294.1,2225.9,2192.7,2193.3,2174,2133.8,2076.7,2030.4,2037.3,2062.7,2054.7,2031,2001.7,1960.7,1944.4,1943.2,1911,1902,1951.2,1986.4,2016,2090.7,2154.1,2180.9,2203.2,2202.4,2186.1,2170.2,2118.5,2061.9,2033.9,1964.4,1856,1788.6,1730.8,1613.2,1454.5,1314.7,1220.9,1127.8,1005.2,905.95,826.8,717.14,613.1,518.9,383.84,263.31,200.29,135.19,67.387,16.617,-52.287,-126.62,-188.44,-251.75,-283.88,-291.05,-333.26,-396.25,-462.27,-556.88,-648.05,-704.56,-767.59,-868.68,-974.67,-1030.5,-1066.2,-1156.5,-1252,-1302.9,-1383.9,-1485.8,-1561.5,-1681.2,-1811.8,-1866.7,-1945.6,-2081.7,-2160.5,-2202.5,-2276.1,-2366,-2461.7,-2527.1,-2561,-2625.9,-2688.9,-2746.2,-2875.7,-2997.7,-3076,-3250.4,-3439.3,-3487.4,-3537.5,-3655.6,-3707.3,-3733,-3773.9,-3699.6,-3526.6,-3334.4,-3031,-2587.8,-2074.6,-1495.6,-914.73,-390.08,154.39,693.26,1136,1522.4,1834.6,2044.9,2268.2,2471.1,2518,2478.7,2434.5,2393.2,2408.3,2415.7,2341.5,2291.7,2276.4,2206.4,2151.1,2166.2,2168.5,2117.7,2055.7,2021.3,1994,1938.7,1900.8,1909.5,1916.5,1930.8,1965.8,1962.4,1945.6,1993.6,2048.8,2039.6,2042.8,2105.3,2130.8,2107.3,2130.9,2154.1,2096.5,2038.6,2008.4,1932.2,1821.9,1705.4,1601.9,1548.6,1469.9,1325.4,1213.8,1110.6,973.13,889.38,803.79,654.57,562.68,496.46,385.32,343.33,306.2,161.36,79.253,96.366,41.981,-58.42,-118.8,-157.47,-190.51,-252.19,-325.82,-346.25,-358.02,-410.65,-483.66,-561.58,-601.62,-623.7,-703.43,-788.08,-846.24,-943.78,-1049.6,-1133.4,-1221.7,-1301.3,-1417.6,-1561.4,-1614,-1644.1,-1742.9,-1803.3,-1844.1,-1956.7,-2061.7,-2144.3,-2244.1,-2302.8,-2360.2,-2485,-2601.6,-2692.2,-2819,-2956.2,-3066.4,-3171.5,-3284.2,-3372.1,-3409.6,-3432.2,-3422.1,-3278.3,-3023.9,-2733.5,-2345.1,-1856,-1359,-830.86,-270.7,231.26,691.61,1129.2,1485.4,1784.6,2036.4,2185.7,2282.4,2362.4,2377.1,2355.8,2309.6,2191.4,2070.4,2013.4,1962.5,1878.6,1777.4,1697.2,1674.6,1671.3,1643.4,1600.2,1546,1501,1460.8,1396.4,1386.1,1452,1459.4,1428.8,1480.6,1547.9,1575.9,1641.3,1737.4,1802,1844.9,1887.5,1904.9,1880.5,1868.9,1891.4,1865.4,1779.2,1709.3,1657.1,1593.2,1495.9,1342.5,1193.1,1089.6,979.16,856.36,733.08,602.52,511.56,437.25,307.12,172.05,76.37,-11.749,-87.785,-161.22,-237.49,-276.46,-310.43,-373.51,-415.75,-449.36,-519.36,-587.33,-628.72,-668.73,-715.83,-774.78,-845.5,-909.4,-964.16,-1031.7,-1132.1,-1246.7,-1313.8,-1333.2,-1398.2,-1518.6,-1601.2,-1666,-1771.8,-1849,-1900.2,-2006.1,-2102.4,-2175.3,-2306,-2397.9,-2428.3,-2566.1,-2732.2,-2781,-2860,-3016.4,-3113,-3195.2,-3334.6,-3458.4,-3550,-3630.9,-3659,-3607.8,-3498.2,-3331,-3039.7,-2602.2,-2122.9,-1626,-1046.7,-466.55,47.832,567.68,1049.8,1428.2,1774.3,2070.1,2249.1,2360.7,2414.9,2417.4,2431.4,2401.8,2299.5,2239.3,2201.8,2111.1,2054.2,2047.2,2000.3,1941.7,1918.2,1911.8,1913.3,1868.3,1757.2,1689.3,1696.7,1697.7,1693.8,1708.1,1704.3,1712.3,1789.2,1872.5,1872.1,1835.3,1856.1,1897.2,1901,1927,1963.4,1920.7,1873.4,1886.1,1831,1690.9,1589.2,1510.2,1399.2,1295,1199.7,1089.5,983.89,881.98,751.01,595.41,474.42,415.88,351.92,231.34,105.85,24.333,-41.982,-132.85,-217.68,-238.8,-249.31,-351.02,-487.47,-545.53,-574.75,-638.14,-660.29,-642.65,-699.22,-790.93,-826.23,-881.5,-976.98,-1018,-1048.5,-1128.5,-1210.2,-1312.3,-1430.5,-1489.3,-1543.4,-1630.4,-1679.9,-1758.3,-1921.1,-2029.1,-2053.2,-2122.1,-2232.8,-2303.2,-2371,-2501,-2631.8,-2700.3,-2782.3,-2913.4,-3026.6,-3145.9,-3294.3,-3399.8,-3496.2,-3629.7,-3714.5,-3758.3,-3817.9,-3816.9,-3724.5,-3551.2,-3224.6,-2783.7,-2330.7,-1812.2,-1210.5,-630.38,-84.443,456.13,950.82,1386.5,1770.5,2074.3,2296.1,2460.4,2566.5,2619.8,2642.2,2618.1,2529,2436.2,2395.1,2363.9,2326.2,2322.9,2325.9,2302.7,2294.3,2297.1,2273.7,2252,2239.8,2192.3,2128.7,2104.5,2096.9,2076.1,2100.4,2191.5,2251.4,2242.5,2252.2,2296.5,2310.1,2315.1,2349.7,2352,2307.7,2288.2,2269.1,2199.2,2135.1,2068.3,1938,1831.9,1786.9,1673.2,1492.9,1345,1217,1115,1048.3,927.83,769.63,675.4,594.08,453.73,331.11,279.75,224.92,127.88,51.578,-0.74346,-73.515,-111.62,-106.78,-155.51,-221.09,-243.74,-318.17,-441.48,-513.04,-569.96,-642.36,-690.55,-755.6,-853.77,-930.41,-990.4,-1055.7,-1135.6,-1251.3,-1364.9,-1439.9,-1522.7,-1634,-1740.3,-1814.1,-1848,-1897.8,-2004.5,-2102.9,-2180.8,-2278.9,-2325.7,-2330,-2437.8,-2592.4,-2654,-2722.3,-2879.4,-3025.6,-3131.3,-3234.2,-3319.6,-3392.5,-3477.8,-3583.8,-3704.7,-3787.3,-3786.9,-3707.1,-3540.4,-3282.6,-2942.8,-2524.1,-2052.5,-1533.5,-968.97,-428.91,81.318,613.77,1093,1460.9,1776,2024.5,2192.5,2342.6,2451.8,2492.8,2505.8,2462.5,2372.1,2318,2275.8,2216.5,2186.2,2172.7,2181,2224.9,2219.7,2169.6,2140.7,2061.2,1959.2,1986.5,2069,2066.8,2027.9,1997.5,1984,2026.4,2089.3,2138,2194.1,2221.8,2214.3,2223.1,2214.8,2155.6,2084.6,2011.9,1955.6,1936.8,1902.8,1833.8,1753.1,1628.7,1476.6,1375.3,1308.9,1216.7,1113.5,1019.6,916.12,825.76,769.93,666.32,500.65,415.78,399.46,303.32,187.2,137.45,73.366,-0.06831,-38.366,-96.656,-157.91,-200.89,-286.13,-377.45,-432.23,-504.69,-573.72,-593.92,-623.02,-706.73,-805.79,-862.19,-896.76,-976.41,-1064.9,-1121.3,-1207.1,-1294.1,-1312.6,-1347.1,-1441.4,-1513.8,-1562.8,-1626.5,-1694.2,-1781,-1878.8,-1939.5,-1987.6,-2067.1,-2154.9,-2236.8,-2331.2,-2435.2,-2541.5,-2649.1,-2756.7,-2875.9,-2990.5,-3066.2,-3143.1,-3260.7,-3358.4,-3396,-3392.2,-3326.2,-3172.1,-2912,-2523,-2077.8,-1647.4,-1161,-607.68,-96.995,366.61,830.54,1249.2,1583.4,1845.6,2058.9,2238.7,2344.2,2363.5,2379.6,2391,2316.1,2202,2129.1,2066.9,1993.5,1935.4,1895.8,1871.1,1828.1,1724.4,1641,1664.3,1672.8,1577.8,1521.8,1536.5,1500.5,1486.7,1563.7,1603.3,1637.1,1759.9,1824.8,1791.2,1812.2,1866.4,1878.7,1885.5,1879.2,1852.4,1831.8,1799.5,1762,1713.9,1610.8,1483.5,1371.6,1277.8,1206.6,1098.6,952.24,859.34,767.44,633.76,565.81,520.44,409.75,320.87,244.83,111.9,11.672,-20.552,-49.236,-84.865,-148.92,-233.98,-274.54,-301.47,-364.92,-406.64,-410.53,-469.85,-596.89,-669.02,-686.5,-797.92,-949.29,-984.3,-1015.2,-1156.1,-1272.3,-1306.3,-1351.3,-1430.2,-1519.3,-1609.5,-1696.7,-1775.3,-1822.4,-1869.8,-1958.8,-2027.1,-2073.2,-2190.7,-2344.1,-2460.4,-2554.1,-2605.5,-2651.6,-2797.3,-2962.9,-3049.5,-3153.3,-3274.7,-3320.9,-3382.5,-3512.1,-3608.2,-3681.3,-3740.7,-3676,-3508.6,-3300.9,-2982.2,-2563.6,-2117.9,-1617.4,-1068.5,-502.38,81.201,598.9,1019,1410.4,1729,1964.6,2216.4,2408.6,2464.1,2503.1,2518.8,2437.9,2378.3,2372.7,2328.8,2291.9,2281.1,2223.7,2164.1,2140.6,2101.9,2066.5,2037.4,1970.8,1935.6,1963.3,1944,1883.9,1883.7,1906.3,1911.5,1954.8,2019.9,2060.3,2104.2,2152.2,2179.6,2207.3,2234,2232.7,2200.9,2142.5,2070.8,1997.9,1921.8,1848.7,1759.2,1641.7,1542.1,1452.7,1338.2,1239.5,1139.6,981.59,829.86,728.13,633.77,552.17,478.29,385.22,300.6,220.17,125.18,48.035,-15.201,-76.165,-111.92,-145.08,-202.63,-278.3,-364.34,-426.04,-473.68,-559.56,-626.61,-635.86,-689.02,-801.79,-884.08,-945.06,-1031.4,-1120.2,-1189,-1255.9,-1340,-1426.9,-1505.9,-1596.9,-1685.5,-1755.6,-1861,-2003,-2099.4,-2155.4,-2244.7,-2370.7,-2482.4,-2539.2,-2564.4,-2639.6,-2781,-2913.1,-2998,-3068.9,-3155.7,-3258.8,-3374.1,-3494.9,-3594.7,-3669.3,-3768.5,-3900.2,-3985.8,-3981.9,-3915.3,-3794.1,-3605.5,-3338.6,-2947.7,-2405.6,-1793.6,-1213.5,-660.05,-99.091,432.38,901.53,1316.3,1651.6,1894.1,2103.4,2300.7,2427.3,2467.9,2461.6,2431.8,2398.3,2363.7,2313.3,2282,2296.6,2306.3,2293.8,2293.7,2295.9,2288.9,2281.5,2252,2221.9,2241.6,2260.3,2224.2,2194.5,2203.2,2199.4,2192.1,2230.1,2281.4,2298.5,2307.5,2329.5,2342.5,2353.6,2380.1,2390.7,2355.1,2287,2207,2123.1,2048.6,1992.7,1922.7,1814,1707.7,1610.4,1477.1,1343,1237.2,1104.3,972.96,892.65,795.9,692.29,646.19,570.72,432.57,346.02,309.14,247.02,175.88,109.05,49.641,22.653,-14.057,-109.98,-221.2,-288.81,-319.36,-367.95,-455.03,-529.78,-581.13,-658.04,-756.56,-855.04,-958.01,-1037.1,-1088.6,-1156.5,-1241.8,-1341.8,-1461.7,-1564.4,-1665.9,-1795.2,-1879.1,-1925.1,-2039.9,-2177.4,-2247,-2308.8,-2420.2,-2545.7,-2639.5,-2696.4,-2762.2,-2858.1,-2963.1,-3091.2,-3224.7,-3311.9,-3392.8,-3506.3,-3616.2,-3722.5,-3837.6,-3937.4,-4003.9,-4003,-3913.8,-3751.4,-3496.6,-3151.5,-2748.6,-2234.1,-1615.1,-1052,-556.5,3.0022,557.69,991.78,1389.3,1746.8,1951.8,2110.3,2303.3,2379.9,2352.6,2366.8,2378.8,2362.7,2353.5,2279,2188.9,2196.5,2187.4,2105.7,2084.4,2111.8,2097.5,2071.1,2048.6,2009,1973,1943.8,1901.9,1864.8,1866.8,1896.1,1903,1909.2,1984.2,2070.8,2068.1,2045.6,2085.4,2106.3,2075.2,2054.9,2006.3,1925.7,1924.5,1944.6,1858.5,1747.5,1669.3,1561.8,1455.1,1360.4,1229.5,1111.3,1000.2,819.5,647.94,572.74,528.12,457.15,369.29,290.36,230.63,151.03,57.412,11.277,-13.055,-71.554,-144.08,-203.62,-246.99,-286.3,-354.31,-443.81,-512.87,-564.68,-623.9,-675.37,-710.45,-776.91,-882.58,-957.02,-1007.8,-1101.3,-1195.9,-1245.2,-1296.6,-1372.1,-1465.6,-1572.5,-1659.7,-1739.3,-1836.9,-1919.4,-2000.3,-2116.7,-2235.4,-2347.9,-2470.5,-2576.4,-2668.7,-2782,-2919.3,-3043.5,-3116.9,-3206.6,-3379.4,-3508.7,-3522.8,-3543.4,-3531.4,-3359.8,-3141.5,-2930.6,-2561.3,-2055.7,-1575.4,-1075.3,-506.06,21.068,481.78,922.12,1311.7,1657.1,1962.6,2142.6,2211.8,2274.2,2329.1,2345.2,2321.7,2259.3,2209.2,2174.7,2103.2,2056.7,2064.5,2024.4,1952.5,1915.7,1864.3,1808.4,1797,1777.5,1738.8,1724.4,1720.3,1721.5,1739.2,1760.3,1787.8,1821.2,1849.4,1882.5,1929.2,1996.7,2058.2,2047.4,1986,1952.4,1948.2,1951.1,1928.6,1843.2,1765.1,1727.4,1622.5,1470.5,1373.4,1261.6,1108.9,1006,893.44,712.12,570.09,476.6,360.75,281.5,243.41,140.84,10.576,-51.441,-101.43,-194.78,-268.97,-303.56,-355.75,-424.38,-466.03,-510.39,-594.47,-655.34,-665.15,-713.74,-808.74,-868.48,-919.09,-995.4,-1053.2,-1127.3,-1251.1,-1348.9,-1419.8,-1513.5,-1589.2,-1657.9,-1778.3,-1892.8,-1960.4,-2049.9,-2175,-2283.5,-2373.1,-2469.7,-2578.5,-2698.7,-2824.5,-2940.6,-3043.5,-3147.3,-3262.3,-3385.7,-3501,-3588.6,-3648.4,-3681.1,-3656.1,-3541.2,-3339.5,-3063.3,-2693.4,-2216.8,-1693.7,-1187,-657.92,-76.414,466.65,898.37,1265.2,1609.1,1900.9,2128.2,2309.8,2433.4,2488.5,2502.8,2498.5,2481.7,2450.2,2407.4,2392.2,2398.6,2358.6,2299.4,2288.7,2281.2,2253.7,2250.4,2236.6,2179.5,2126.8,2084.2,2044.8,2050.3,2081.1,2091.6,2117,2162.6,2170.6,2165.3,2194.2,2222,2238.4,2251.6,2218.3,2157,2125,2112.3,2109.4,2079.4,1973.6,1872.8,1811.6,1697.2,1570,1492.7,1395.2,1296.7,1231.6,1113.4,956.28,833.61,722.53,616.55,513.38,408.74,356.44,307.11,171.01,35.962,-29.484,-91.266,-156.43,-205.86,-272.84,-354.37,-432.85,-517.61,-592.89,-631.36,-653.97,-716.37,-822.78,-918.75,-987.18,-1041.1,-1081.6,-1144.6,-1256.7,-1378.6,-1479,-1556.7,-1627.3,-1723.4,-1819.6,-1879.3,-1956.3,-2067.2,-2149.2,-2220.7,-2325.1,-2429.7,-2532.4,-2640.7,-2715.2,-2792.8,-2910.9,-2987.5,-3031.9,-3149.2,-3294.4,-3406.7,-3520.5,-3586.8,-3580.2,-3565.5,-3476.9,-3260.6,-3004,-2674.3,-2230.5,-1795.7,-1369.3,-874.46,-396.09,36.468,473.62,848.72,1140.6,1408.2,1618.3,1757.8,1866.1,1907.6,1906.6,1959.4,2001.1,1936.2,1870.7,1890.8,1920.4,1931.4,1944.7,1939.9,1956.4,2009.4,2017,1997,1996.2,1966,1951.9,1995.7,1992.1,1959.2,1976.2,1963,1923.5,1946.8,1964.6,1930.4,1909.6,1907.9,1914.8,1938.3,1932.5,1867.9,1799.2,1774.3,1741.5,1669.4,1632.5,1603.8,1483.1,1349.1,1272.6,1181.1,1069.7,950.7,826.72,773.36,723.99,574.4,452.25,416.81,370.46,317.05,247.82,144.58,95.064,70.461,-15.34,-98.486,-152.49,-222.35,-284.96,-335.02,-406.41,-498.67,-574.08,-591.23,-594.16,-651.48,-724.44,-779,-841.7,-907.51,-971.86,-1037.6,-1102.3,-1188.3,-1270.3,-1317.4,-1377.9,-1457.4,-1530.4,-1614.5,-1674,-1712.3,-1821.9,-1967.5,-2065.9,-2157.5,-2250.8,-2317.3,-2400.7,-2514.3,-2630.8,-2743.8,-2820.5,-2858.8,-2924.1,-3019.8,-3072.1,-3037.2,-2924.1,-2755.4,-2533,-2244.2,-1900.2,-1532.2,-1153.7,-753.44,-337.28,50.581,386.46,686.69,951.59,1170.9,1343.8,1466.2,1561.1,1645.1,1671.6,1631.2,1589.6,1578.7,1584.7,1574.7,1531.3,1512,1530.6,1520,1512.3,1533.9,1493.9,1428.9,1432.8,1420.2,1354.8,1331.2,1333,1313.5,1313.3,1333.6,1356.5,1403.4,1452.3,1462.2,1455.2,1457.8,1445.4,1419.5,1427.2,1446.3,1423.6,1397,1376.3,1294.2,1189,1139.8,1090.6,988.87,884.01,784.97,664,556.3,484.44,411.05,336.81,284.4,216.68,121.73,57.58,25.116,-28.388,-84.317,-103.29,-130.39,-216.19,-315.48,-367.05,-390.23,-420.41,-454.97,-505.46,-576.17,-621.47,-634.56,-680.47,-771.75,-833.58,-841.26,-873.82,-967.14,-1049.8,-1099.2,-1176.7,-1274.2,-1344.1,-1418.4,-1507.9,-1563.1,-1618.2,-1727.6,-1838.1,-1928.9,-2047.1,-2153.9,-2217.8,-2300.9,-2399.1,-2467.1,-2527.3,-2586.5,-2664.7,-2787,-2837.1,-2756.9,-2667.4,-2556.6,-2347.7,-2116.2,-1834.8,-1427.9,-1026.2,-673.92,-278.14,107.43,452.54,790.35,1043.5,1238.1,1458.5,1603,1646.5,1694.8,1722.8,1714.5,1728.4,1748.3,1761.2,1758.3,1715.6,1704.6,1744.2,1732.9,1677.6,1661.2,1674.5,1662.6,1616.3,1587,1578.4,1542,1525.6,1557.7,1568.6,1572.4,1576,1542,1559.2,1624.1,1613.9,1595.8,1609.5,1561.9,1521.6,1532.5,1498.3,1448.3,1419.2,1366.9,1296.7,1174.6,1023.8,973.22,950.45,819.96,666.46,569.31,515.18,484.19,405.58,296.13,249.05,203.82,106.13,47.508,24.364,-52.309,-148.11,-202.24,-249.55,-302.88,-321.27,-329.8,-381.41,-466.31,-566.23,-647.5,-671.3,-708.02,-811.45,-902.98,-974.04,-1081.2,-1175.8,-1224.1,-1273.4,-1341.1,-1425.2,-1521.7,-1608.6,-1676,-1732.7,-1814.7,-1923.8,-1994.8,-2048.6,-2151.8,-2243.1,-2280.1,-2325.3,-2392.8,-2472.7,-2559.4,-2611.3,-2654.4,-2748.2,-2868.5,-2985,-3082.3,-3142.3,-3209.8,-3313.1,-3421.4,-3529.5,-3591.6,-3529.9,-3379.1,-3189.5,-2928.9,-2601.7,-2241.1,-1832,-1381.4,-937.35,-512.28,-83.646,336.79,689.9,954.44,1170.7,1355.5,1515.2,1670.8,1781,1813.2,1822.3,1824.3,1825.7,1887.2,1946.5,1921.4,1927.8,2010.9,2052.5,2069.7,2117.7,2125,2099,2113.5,2133.3,2102.9,2042,2006.9,2025.5,2056.7,2061.8,2046.5,2022.6,2025.4,2063,2075.2,2055.3,2051.5,2053.5,2041.4,2030,2002.1,1932,1867.6,1850.6,1803.4,1691.2,1628.9,1610.1,1504.7,1366.4,1274.9,1161,1039.7,949.24,830.3,734.04,704.88,629.79,522.8,479.86,436.35,356.18,285.36,213.43,170.16,159.93,87.978,-1.1014,-22.448,-79.049,-191.7,-243.91,-268.27,-324.86,-373.13,-435.63,-529.32,-601.07,-670.34,-758.59,-824.14,-889.02,-981.47,-1061.7,-1135.4,-1227.6,-1306.8,-1382,-1490.9,-1585,-1625.4,-1672.2,-1753.3,-1832.5,-1911.2,-1992.2,-2066.6,-2177,-2317.1,-2403,-2451.2,-2534.9,-2617.3,-2680.6,-2806.3,-2966.5,-3051.5,-3104.8,-3195.6,-3272.3,-3348.3,-3444.5,-3454.4,-3395.5,-3340.4,-3153.2,-2813.8,-2487.1,-2129.1,-1673.5,-1218.9,-747.95,-251.1,156.46,512.93,882.54,1185.2,1419.3,1617.2,1741.1,1824.4,1895.8,1915.1,1907.3,1901.9,1885.6,1887.7,1905.4,1900,1901.7,1927.6,1954,1994.9,2021.7,1980,1919,1879.5,1823.9,1773.6,1767.4,1776.5,1788.1,1791.6,1765.7,1762.2,1805.6,1836.3,1868.9,1935.4,1949.3,1882.8,1844.4,1852.5,1832.4,1809,1822.1,1790.5,1667.9,1526.4,1420.8,1358.3,1311.9,1221.1,1100.5,999.17,890.28,787.4,722.82,633.35,533.04,490.04,428.31,320.83,250.65,180.77,80.141,15.647,-35.284,-95.644,-129.81,-176.47,-216.68,-205.02,-271.41,-436.89,-516.63,-518.05,-561.32,-617.41,-680.41,-777.43,-855.92,-910.14,-975.77,-1061.1,-1157.9,-1204.4,-1224.3,-1330,-1445.7,-1483.3,-1551.5,-1654.2,-1731.2,-1853,-1980.9,-2040.1,-2118.4,-2233,-2349.3,-2505.9,-2641.3,-2705.9,-2786.4,-2890.6,-2985.9,-3098.3,-3200.9,-3272.2,-3319.7,-3302.7,-3206.1,-3024,-2743.2,-2424.9,-2077.3,-1644.8,-1174.3,-706.33,-224.85,236.26,672.02,1072.9,1392.4,1690.1,1969.2,2115.3,2179.5,2239.4,2247,2267.9,2327.7,2298.1,2238,2250.2,2241.1,2216.5,2251.1,2273,2271.2,2292.3,2279.9,2227.4,2180,2121.1,2065.2,2032.2,1995.2,1971.5,1969.1,1954.1,1949.2,1966.7,1965.2,1956.5,1974.9,2010.2,2035.6,2025.3,1999.5,1997.4,1976.2,1908.1,1851.3,1811.5,1745.3,1648.2,1529.3,1416.7,1320.1,1208.7,1115.6,1046.1,908.41,745.81,672.25,630.52,565.44,508.12,435.98,365.64,325.18,230.2,86.193,4.303,-42.815,-125.13,-211.07,-276.65,-336.83,-409.91,-504.68,-587.21,-644.98,-712.71,-784.55,-850.41,-932.34,-1014.8,-1084.8,-1160.2,-1237.8,-1333.9,-1451.7,-1529.1,-1583.9,-1688.7,-1797.2,-1876.4,-1980.7,-2078.7,-2134.6,-2221.6,-2339.7,-2422.9,-2507,-2609.8,-2669.4,-2728.3,-2855.4,-2967.2,-3018.4,-3099.8,-3229.9,-3367.3,-3501.8,-3591.3,-3651.3,-3756.2,-3872,-3968.5,-4064.3,-4091.5,-4047.5,-3998.2,-3868.6,-3600.1,-3233.5,-2774.9,-2283.1,-1799.1,-1242.2,-656.11,-145.46,351,834.51,1205.4,1506.3,1796.1,2015.6,2157.3,2275.1,2355.2,2390.1,2435.8,2480,2474.4,2478.4,2529.7,2564.1,2591.4,2650.8,2685.3,2673.3,2662.6,2663.6,2662,2651.6,2629.6,2596.5,2558.2,2548.9,2575.8,2576.2,2528.1,2488.9,2497,2534.9,2556.7,2546.5,2524,2489.6,2448.2,2406.8,2347.7,2300.3,2261.7,2144.7,2014,1993.9,1960.9,1824.2,1728.3,1686.3,1575.6,1422,1283.7,1171.8,1114.4,1055.6,955.81,914.62,916.09,840.63,755.5,733.7,661.42,518.52,431.97,399.3,327.57,236,174.88,114.26,48.242,9.2421,-50.4,-173.39,-289.75,-355.44,-419.76,-511.77,-601.07,-660.42,-735.7,-871.54,-985.25,-1024.4,-1079.8,-1177,-1274.8,-1390.1,-1486.4,-1524.5,-1570.6,-1640.1,-1696.8,-1757.7,-1827.9,-1915.1,-2022.3,-2097.5,-2158.9,-2255.8,-2349.6,-2450.6,-2585.1,-2693.3,-2794.2,-2924.2,-3013.5,-3083,-3184.5,-3226.9,-3186.1,-3125,-2999.4,-2781.5,-2512.2,-2158.8,-1717.8,-1280.6,-849.51,-365.27,116.83,535.17,926.55,1265.1,1493.7,1688.8,1876.8,1976.3,2047.4,2146.1,2164,2121.2,2106.6,2054.2,1999.3,2025.5,2003.5,1924.6,1951,2002.2,1958.2,1924.7,1930.7,1894.9,1848.5,1827.9,1789.3,1726.2,1679.7,1650.6,1609,1585.9,1618.2,1643.3,1635.9,1661,1689.4,1670.3,1675,1716.3,1707.9,1659.7,1627.3,1574.5,1471.8,1379.4,1324.3,1240.5,1107.8,986.23,884.59,775.65,678.43,598.77,511,413.1,324.1,260.03,197.38,102.85,17.023,-34.586,-104.86,-179.7,-214.88,-268.93,-360.11,-419.81,-464.41,-544.11,-626.61,-683.07,-723.05,-754.84,-801.09,-867.87,-930.01,-989.99,-1056.5,-1110.8,-1159.8,-1229.6,-1320.7,-1422,-1512.2,-1573.5,-1630.6,-1705.3,-1779,-1852.4,-1939.1,-2011.8,-2060,-2131.3,-2235.5,-2319.4,-2384.2,-2471.6,-2556.8,-2627.4,-2726.1,-2829.3,-2907.7,-3009,-3118.8,-3198.1,-3294.6,-3408.4,-3491.2,-3545.4,-3534.5,-3442.1,-3341.7,-3204.3,-2942.3,-2604.2,-2241.5,-1830.2,-1389,-924.93,-410.8,94.118,520.59,913.45,1292.9,1583.9,1796.9,1998.7,2128,2148.6,2166.3,2204.7,2212.2,2227.2,2261.2,2275.4,2289.2,2300.9,2296.4,2321.9,2371.7,2398.5,2410.2,2405.8,2369.5,2315.5,2256.2,2205.3,2171.1,2154.6,2167.9,2180.2,2179.8,2225.9,2269.6,2237.1,2223.5,2244.7,2206.5,2172.1,2163.5,2088.2,2028.9,2038.4,1972.3,1845.9,1777.5,1685.9,1517.2,1396.4,1338.2,1201.7,1010.5,943.58,952.77,840.68,672.27,588.62,505.81,386.96,315.66,251.58,157.66,90.032,16.519,-82.808,-128.66,-154.22,-232.88,-293.16,-318.82,-390.98,-461.08,-482.36,-538.07,-615.62,-653.71,-716.78,-810.37,-867.34,-944.99,-1086.9,-1202.7,-1249.2,-1291.8,-1374.4,-1454.4,-1507.5,-1599.2,-1720.9,-1773.4,-1809.8,-1941.4,-2094.2,-2171.7,-2207.6,-2254,-2333,-2420.8,-2466.8,-2509.8,-2607,-2715,-2804.1,-2899.1,-2998.5,-3101.9,-3193.3,-3248.8,-3331.7,-3459.7,-3545.4,-3619.7,-3740.4,-3814.7,-3817.9,-3809.4,-3733.7,-3546,-3288.5,-2980,-2617.9,-2182.2,-1693.7,-1234.4,-767.68,-238.25,232.94,599.88,956.57,1271.8,1489.6,1678.3,1859.4,1968.8,2001.8,2016.8,2024.8,2007.5,2014,2064.1,2083,2077.7,2116.7,2167.3,2191.6,2210.9,2221.1,2214,2198.7,2178.8,2160.2,2122,2055.5,2022.1,2043.6,2056.3,2041.8,2035.9,2026.8,1998.3,1992.1,2022.8,2048.7,2047.3,2023.6,1997.6,1979.4,1932.1,1864.4,1828.8,1778.9,1679.5,1593.8,1514,1406.6,1308.5,1209.7,1101.2,1012.6,896.73,754.96,678.41,632.97,547.91,471.68,413.02,323.15,238.53,191.2,123.77,27.779,-28.334,-50.433,-101.16,-167.68,-215.25,-270.16,-348.11,-420.2,-485.73,-574.37,-657.61,-685.12,-712.24,-796.29,-870.28,-916.37,-1002,-1098.9,-1165.3,-1240,-1320.2,-1383.3,-1455.3,-1544.3,-1647.2,-1762.6,-1860.3,-1930.4,-1992.6,-2053.8,-2131,-2239.4,-2350.8,-2449.9,-2570,-2701.8,-2790.9,-2860.4,-2956.3,-3046.1,-3124.4,-3201.7,-3198.9,-3099.1,-2979.3,-2807.9,-2507,-2107.4,-1675.4,-1229.6,-755.03,-260.85,208.43,644.79,1046.5,1383.6,1666.2,1891.3,2032.4,2133.7,2206.3,2208.7,2189.9,2180.7,2140.2,2094.3,2062.9,2022.4,2006.6,2026,2040.7,2036,1990.9,1929.9,1912,1884.1,1811.1,1777.1,1777.4,1752.7,1744.9,1757.7,1742.9,1740.8,1773.8,1796.9,1819.6,1847.6,1848.4,1856.2,1889.5,1886,1848,1820.2,1776,1702.2,1626,1551.7,1480.4,1389.9,1249.3,1099.3,974.58,858.04,754.03,639.26,497.66,402.48,339.93,215.96,95.98,48.632,-24.317,-133.76,-187.89,-233.56,-321.3,-368.68,-380.65,-446.66,-532.5,-601.85,-699.22,-780.32,-813.33,-869.04,-912.15,-920.13,-1010.4,-1117.8,-1117.3,-1165.5,-1320.5,-1390.3,-1388.6,-1464.3,-1587.5,-1681.6,-1740.9,-1811,-1927.1,-2014.7,-2060.9,-2171.9,-2296.2,-2359.1,-2462,-2568.8,-2564.8,-2578.5,-2679.9,-2744.3,-2808.7,-2952.1,-3073.5,-3147.8,-3254.3,-3375.1,-3477.9,-3569.3,-3649.8,-3748.7,-3850.8,-3896.3,-3910.9,-3906.8,-3810.1,-3601.5,-3299.2,-2906,-2445.5,-1913.1,-1335.7,-800.71,-275.97,287.93,791.1,1206.8,1587,1874.2,2069.9,2253.4,2396.4,2491.2,2568.8,2575.5,2552,2604.8,2649,2600.3,2563.2,2591.2,2622.4,2654.3,2715.1,2766,2769.9,2762.8,2769.3,2742.4,2676.3,2639.4,2628.7,2585.6,2545.5,2559.2,2563.3,2522,2520.8,2570.3,2577.6,2557.5,2567.4,2561.6,2526.6,2497,2445.9,2390.2,2374.3,2331.1,2220.2,2104.3,1997.2,1881.8,1776,1663.3,1525.4,1396.2,1281.4,1148.2,1012.4,917.44,851.51,776.34,687.34,598.23,526.99,473.21,393,280.74,197.39,153.74,112.41,71.412,27.083,-37.073,-103.25,-158.48,-228.16,-326.39,-426.64,-502.3,-567.13,-640.47,-714.09,-795.32,-903.83,-1011.8,-1083.1,-1145.1,-1235.1,-1329.2,-1405.6,-1503,-1630.4,-1722.3,-1762.8,-1816.2,-1905.3,-2010.2,-2126.8,-2204.2,-2199.8,-2216.8,-2332.2,-2440.8,-2503.9,-2613.9,-2748,-2844,-2940.7,-3030.2,-3099.2,-3226.5,-3385.2,-3471.1,-3535.9,-3654,-3765.5,-3827.5,-3861.7,-3844.1,-3735,-3558.4,-3333,-3005.8,-2573,-2122.3,-1650.9,-1096.2,-532.97,-45.9,398.04,801.99,1153.4,1489.8,1763.6,1913.6,2021.7,2131.9,2168.4,2150,2166.1,2187.9,2172.7,2177,2203.4,2198.5,2218.8,2301.2,2355.9,2374,2397,2361.7,2287.9,2268.1,2235.6,2155.7,2141.3,2181,2183.9,2178.6,2190.5,2191,2186.4,2181.4,2164.8,2139,2107.2,2092.7,2105.2,2100.1,2064.4,2028,1977.2,1890.2,1792.8,1710.8,1641.5,1568.3,1476.5,1371.7,1264.9,1157.3,1060.7,977.37,874.91,750.31,643.84,547.09,435.95,356.06,312.62,242.55,177.7,156.88,101.45,18.488,-20.897,-76.731,-138.64,-122.57,-143.97,-251.44,-287.85,-296.24,-392.63,-471.53,-514.22,-612.1,-706.58,-766.35,-851.72,-946.31,-1019,-1067.2,-1109.2,-1182.1,-1235.4,-1249.2,-1321.7,-1415.7,-1442.2,-1492.7,-1603.2,-1687,-1747.3,-1817,-1904.8,-2017.7,-2109.7,-2183.9,-2277.8,-2334.4,-2372,-2481.4,-2591,-2639.8,-2716.6,-2820.4,-2880.7,-2920.9,-2936.1,-2864.4,-2719.2,-2533.2,-2266.4,-1882,-1417.9,-943.54,-476.93,10.959,492.34,908.32,1300.6,1696.2,1980.6,2125.4,2246.7,2342.5,2361.5,2370,2369.2,2291.9,2196.9,2156.8,2136.5,2111.1,2092.9,2076.3,2058.9,2052.7,2045.1,1997.7,1913.5,1841.3,1794.5,1760.9,1737.9,1704.5,1673.8,1683.2,1688.2,1662,1672,1716.7,1738,1755.4,1775.9,1767.2,1759.3,1771.9,1758.8,1713.3,1668.7,1609.7,1510.7,1403.3,1315.2,1209.8,1075.5,957.31,834.59,660.54,506.39,436.9,376.2,260.14,131.77,48.274,12.291,-36.166,-134.64,-229.23,-280.08,-303.18,-318.81,-382.76,-491.79,-543,-571.85,-671.42,-745.81,-766.98,-846.83,-918.59,-927.76,-1010.4,-1137.5,-1193.4,-1272.3,-1399.5,-1466.8,-1527.6,-1628,-1670.1,-1698.5,-1811.1,-1897,-1902.2,-1972.9,-2110.3,-2191.7,-2275.2,-2428.7,-2571,-2695.1,-2831.3,-2912.3,-2946.7,-3002.6,-3067.2,-3150.7,-3265,-3356.6,-3443.2,-3559.2,-3658.3,-3741.3,-3833.4,-3911.2,-3992.8,-4092.8,-4159.6,-4160,-4075.9,-3889.5,-3629.3,-3310.3,-2886,-2352.9,-1811,-1314.6,-781.42,-197.63,314.47,726.06,1090.4,1404.7,1676.8,1885,1974.9,2037.8,2152.3,2206.6,2185.3,2205.6,2222.7,2170,2148.8,2179.6,2170.5,2172.7,2246.9,2293.1,2291.5,2336.2,2391.8,2378.1,2319.7,2260.6,2232.4,2232,2220.6,2226.5,2252.1,2217.7,2163.7,2174.9,2195.4,2200.6,2229.9,2238,2204.6,2177.5,2151.2,2113.6,2072.1,1995.6,1884.4,1783.5,1691.6,1584.8,1460,1312.6,1163.5,1050.7,964.81,889.96,829.51,751.76,650.88,577.49,523.35,452.6,387.58,321.38,230.67,171.61,167.5,139.85,59.733,-17.078,-83.253,-170.07,-242.41,-269.27,-301.31,-369.75,-461.15,-554.82,-589.57,-580.98,-657.08,-808.73,-914.75,-965.38,-991.76,-1023.9,-1119.3,-1236.5,-1304.7,-1360.2,-1436.6,-1531.5,-1631.6,-1684.9,-1718,-1823.4,-1972,-2085.4,-2181.5,-2302.4,-2428.6,-2529.7,-2643.3,-2788.4,-2887.1,-2931.3,-3007.6,-3106.4,-3156.5,-3128.3,-3037,-2934.1,-2771.6,-2445.7,-2015.7,-1549.8,-1033.6,-540.45,-88.659,381.82,812.5,1205.8,1602.1,1877.9,2046.2,2240.4,2372.8,2391.8,2398.8,2384.4,2343.3,2304.2,2216.7,2122.4,2082,2038.2,1999.4,1976.1,1907.6,1833.9,1789.9,1741.4,1714.7,1680.8,1604,1578.8,1592.2,1561,1559.1,1596.7,1593.7,1611.7,1684.3,1731.7,1766.5,1828.7,1861.5,1815.8,1730.3,1678.6,1652.1,1589,1507.7,1429.1,1332.8,1250,1157.3,985.93,815.83,718.94,625.98,520.63,410.53,250.58,100.4,43.785,14.296,-57.72,-131.17,-180.33,-249.7,-341.41,-395.69,-436.61,-539.21,-647.11,-680.4,-706.98,-789.11,-868.35,-914.95,-980.2,-1056.6,-1082,-1097.2,-1181.3,-1286.5,-1356.6,-1436.4,-1550.5,-1665.5,-1744.5,-1797.2,-1888.4,-1991.8,-2029.5,-2101.2,-2284.7,-2428.5,-2473.4,-2546.1,-2675.6,-2796.3,-2889.6,-2991.9,-3145.1,-3310.5,-3425.7,-3499.3,-3538.7,-3552.7,-3543.7,-3429.9,-3205.6,-2951.8,-2593.9,-2074.3,-1531.1,-1019.8,-485.17,40.954,520.11,953.29,1330.2,1656.4,1923.1,2119.9,2264.6,2337.5,2338.9,2332.3,2331.5,2318.6,2298.1,2261.6,2226,2218.4,2219.8,2226,2236.2,2219.7,2185.1,2149.6,2095.4,2037,2001.8,1976.5,1937.4,1884.6,1858.8,1876.3,1882.7,1875.1,1902.4,1923,1904.7,1909.6,1933.8,1929.2,1929.5,1931.2,1865.8,1748.4,1646.2,1588.7,1550.7,1451.3,1297.9,1199.3,1114.7,954.34,829.97,784.41,669,498.8,402.63,326.93,191.87,58.396,-13.413,-53.231,-127.74,-240.6,-316.43,-344.05,-400.49,-497.32,-563.03,-574.59,-606.52,-707.93,-809.12,-861.58,-905.41,-935.9,-958.9,-1047,-1157.5,-1205.7,-1255.9,-1347.6,-1423.9,-1499.1,-1600.8,-1702.9,-1807.2,-1901.9,-1961.9,-2029.1,-2134.6,-2250.2,-2356.2,-2448.4,-2542.3,-2662.9,-2786.1,-2884.7,-2992.5,-3132.7,-3276.4,-3395.1,-3485.5,-3562.6,-3643.3,-3737.4,-3837,-3883.4,-3819.4,-3669.1,-3432.5,-3049.2,-2583.6,-2136.5,-1642.2,-1079.3,-554.86,-54.753,464.07,936.47,1356.6,1716.2,1953.2,2118.3,2232.2,2247.6,2273.2,2344.9,2325.9,2266,2266.9,2256.7,2237,2249.1,2243.2,2248.3,2293.3,2303.1,2274.2,2249.6,2223.8,2191.7,2139.8,2087.1,2076.5,2056.5,1992.1,1957.9,1979.3,2015.1,2039.6,2024.3,1987.2,1992.7,2028.6,2025.2,1979.2,1953.6,1975.1,1984.9,1925,1822.8,1733.5,1655.9,1565.6,1457.7,1327.6,1198.5,1119.5,1048.4,913.9,779.55,700.08,613.27,523.35,463,368.93,249.78,176.5,105.39,15.347,-28.004,-58.473,-139.52,-231.07,-321.32,-434.15,-518.55,-557.93,-603.71,-644.91,-684.15,-777.12,-871.43,-911.18,-980.49,-1080.8,-1110.4,-1118.5,-1199.3,-1300.1,-1362.2,-1420.5,-1512,-1619.5,-1704.5,-1771.5,-1862,-1985,-2099.5,-2169.9,-2243.8,-2385.7,-2549.5,-2698.1,-2850.1,-2927.5,-2925.3,-2997.7,-3111.8,-3131.6,-3115.8,-3076.9,-2903.4,-2611.1,-2259.1,-1842.6,-1373.3,-866.63,-338.89,184.18,668.1,1070.2,1435.8,1794.5,2031.7,2145.1,2244.1,2298.4,2316.1,2361.9,2352.2,2278.3,2240.4,2199.7,2119.8,2054.2,2031.9,2062,2067.7,1993.9,1949.8,1926.9,1826.3,1747.9,1720.7,1643.3,1605.4,1654.5,1653.2,1624.1,1664.9,1711.8,1728.3,1770.8,1816.7,1804.8,1775.5,1783.2,1775.8,1737.1,1720.6,1680.3,1585.7,1494.4,1359.8,1181.9,1089,1015.4,847.63,682.2,551.26,411.85,306.01,189.73,39.255,-30.213,-56.569,-152.35,-241.66,-272.05,-323.99,-420.37,-509.8,-567.77,-634.92,-727.3,-749.35,-696.67,-736.25,-863.39,-915.27,-962.54,-1105.5,-1161.2,-1104.7,-1191.1,-1375.3,-1451.6,-1519.3,-1627.4,-1671.8,-1761.7,-1941.1,-2042.3,-2067.9,-2090.7,-2120.2,-2232.6,-2371.6,-2428,-2510.4,-2641.2,-2709.9,-2771.1,-2871.5,-2980.6,-3129.6,-3287.1,-3411.5,-3527.6,-3610.7,-3692.3,-3799.7,-3807.5,-3723.3,-3637.9,-3438.5,-3096.6,-2729.2,-2316.4,-1841.7,-1318.6,-706.95,-121.33,349.15,842.99,1348.7,1721.6,2009.6,2237.7,2324.5,2340.8,2391.6,2432.6,2419.5,2395.3,2392.3,2393.3,2387.4,2372.4,2342.7,2356.1,2449.3,2519.8,2522,2529.3,2522.7,2475.5,2440.8,2391.3,2324.2,2325.3,2341.8,2280.2,2200.9,2172.7,2184.4,2186.2,2151.8,2150.5,2183.4,2154.2,2122.6,2151.3,2118.6,2011,1929.2,1862.1,1800.6,1739.8,1620.8,1501.5,1447.4,1354.4,1183.8,1039.9,945.19,847.41,751.79,674.48,592.95,507.73,422.48,291.61,137.74,54.973,16.299,-52.081,-127.42,-208.85,-293.59,-316.55,-331.06,-433.16,-544.77,-587.94,-626.2,-699.86,-768.22,-803.41,-832.92,-904.32,-1022,-1149.9,-1262.1,-1363,-1459,-1516,-1530.6,-1582.2,-1683.2,-1762.4,-1837.4,-1955.3,-2066.9,-2132.6,-2186.8,-2257.8,-2332.8,-2411.4,-2519.5,-2639.9,-2755.8,-2908.3,-3044.2,-3090.3,-3176,-3359.5,-3474.1,-3506,-3583.6,-3703.8,-3828.5,-3931.9,-3979.6,-3991.5,-3919,-3709.5,-3463.2,-3173,-2735.9,-2241.8,-1732.9,-1122.6,-525.97,-48.858,440.12,958.71,1382.5,1716.9,1986.2,2163.2,2289.1,2362.9,2340.2,2323.3,2374.3,2360.1,2281.8,2290.1,2336.6,2316.1,2302.7,2348.8,2398.8,2414.8,2401.2,2391.4,2393.9,2388.4,2391.8,2378.2,2295.7,2223.5,2225.4,2217,2174.7,2176.1,2226.2,2266,2268.9,2252.6,2245.7,2254.1,2258.4,2236.7,2181.5,2091.9,1992.8,1928.3,1864.2,1747.7,1639.4,1556.9,1445.6,1359.7,1293.3,1137.7,968.48,869.76,751.1,618.01,521.98,420.24,340.93,291.74,204.83,131.85,100.46,27.638,-57.018,-99.635,-148.35,-209.01,-269.49,-351.52,-430.77,-504.64,-597.07,-654.73,-660.76,-682.79,-725.35,-792.92,-935.22,-1070.5,-1112.9,-1167.1,-1262.7,-1299.5,-1334.4,-1427,-1496.8,-1570.3,-1673,-1706.2,-1739.9,-1887.2,-2038.5,-2135.6,-2240.3,-2337.4,-2435,-2562,-2681.8,-2801.5,-2919.8,-3007.1,-3115.4,-3226.9,-3260.2,-3276,-3297.4,-3237.1,-3118.4,-2959.8,-2678.7,-2280.1,-1817.9,-1298.9,-755.26,-215.33,323.86,840.46,1295,1661.5,1953.5,2186.9,2333.1,2423,2529.4,2590.4,2541,2475.1,2448.9,2403,2324.5,2247.2,2192.9,2174,2149.3,2083,2019.7,1981.5,1953.4,1944.1,1926.5,1894.3,1878.3,1812.8,1738.1,1822.3,1924.4,1863,1830.2,1880.5,1869.4,1890.3,1944.1,1907.9,1909.1,1947.7,1880,1830.3,1813.7,1685,1551.7,1466.2,1339.1,1235.9,1156.5,1052.8,985.06,872.73,687.91,595.46,520.55,346.5,221.85,142.61,-2.7523,-103.82,-129.68,-200.14,-295.67,-356.38,-400.49,-446.16,-507.85,-562.23,-584.65,-638.81,-736.38,-799.06,-857.58,-975.16,-1074.8,-1119.1,-1194.6,-1287.5,-1327.1,-1389.2,-1520.4,-1611.1,-1646.2,-1727.7,-1850.3,-1954.4,-2039.5,-2118.9,-2208.5,-2307.3,-2395.5,-2481.3,-2545.4,-2589.4,-2706.8,-2861.4,-2914.3,-2938.8,-3040.1,-3145.9,-3246.5,-3374.9,-3485.9,-3617.8,-3778.7,-3865.4,-3930.6,-4054.5,-4138.2,-4165.5,-4195,-4141.9,-3964.8,-3739.7,-3450.4,-3021.2,-2464.8,-1846.6,-1197.4,-548.41,15.529,487.44,965.3,1427.6,1785,2070.8,2307.6,2465.6,2571.4,2632.1,2650.8,2671,2664.9,2620.5,2602.1,2595.5,2592.4,2651.2,2724.4,2742.6,2737.9,2731.1,2734.8,2763.3,2765.2,2707.6,2623,2561.5,2550.6,2527.6,2466.8,2466,2499.4,2470.5,2452.3,2478.5,2481.7,2484.4,2470.9,2403.3,2370.4,2366.6,2301.3,2218.7,2141.7,2037.7,1945.8,1864.3,1767.7,1662.4,1519.5,1376.2,1262.2,1077.4,882.34,825.82,773.12,599.32,435.42,355.96,321.03,296.3,242.52,187.33,163.69,123.21,67.316,16.742,-60.085,-137.93,-197.46,-273.07,-331.72,-366.46,-448.83,-557.15,-633.36,-707.8,-790.06,-845.6,-896.8,-982.21,-1072.7,-1146.1,-1252.5,-1371.3,-1415.5,-1462.1,-1595.3,-1685.7,-1698.6,-1756.5,-1838.5,-1908.2,-2001.6,-2077.9,-2183.8,-2382.9,-2523.3,-2565.2,-2639.9,-2712.8,-2774.3,-2913.8,-3049.4,-3134.5,-3247.9,-3336,-3377.9,-3476.9,-3610.9,-3711.3,-3773.2,-3757.8,-3664.9,-3530.7,-3311.9,-2983,-2567.7,-2064.8,-1525,-1033.7,-569.76,-72.496,425.96,874.24,1286,1654.7,1926.2,2095.9,2192.6,2234.5,2272.8,2322.5,2326,2293.4,2280.3,2267.8,2236.9,2213.2,2213.3,2235.1,2240.6,2219.8,2218.7,2200.5,2136,2131.4,2170.6,2136.3,2100.3,2100.7,2045,2023.2,2089.9,2077.4,2027.3,2107.9,2200.2,2178.5,2135.8,2129.6,2142.3,2145.1,2091.6,2008.8,1937,1861.4,1799.8,1722.6,1573.1,1426.1,1301.1,1138.1,1020,947.39,810.12,709.98,685.45,584.15,468.59,410.43,299.8,214.62,220.2,173.24,129.14,169.26,124.15,-20.883,-122.15,-198.75,-295.07,-391.28,-481.32,-553.89,-609.51,-638.05,-644.94,-696.48,-780.9,-858.47,-962.98,-1023.3,-985.86,-996.01,-1082,-1134.3,-1210.6,-1366,-1494.1,-1556.4,-1634.5,-1756.9,-1850.2,-1875.2,-1920.2,-2044.4,-2180.4,-2291.7,-2404.1,-2509.3,-2617.9,-2763,-2898.4,-2978.9,-3064.1,-3175.4,-3229,-3201.9,-3125.2,-2958.1,-2682.6,-2341.8,-1914.2,-1392,-880.52,-423.12,48.491,516.79,909.4,1269.2,1632.3,1921.6,2117.2,2265.5,2353.5,2386.7,2393.1,2354.1,2315.6,2332.8,2329.7,2275.4,2250.4,2258.1,2251,2230.8,2205.2,2172.2,2118.4,2045.3,2000.7,1986.4,1951.2,1902.2,1863.8,1820.6,1774.7,1752.8,1772.2,1813.6,1838.4,1857.5,1887.9,1902.8,1900.1,1883.4,1851.1,1842.3,1821.3,1719.4,1628.5,1602.3,1515.6,1354.6,1225.9,1116.4,972.39,832.11,741.07,657.06,525.59,397.94,302.9,173.78,53.202,2.817,-72.697,-177.59,-218.2,-241.99,-283.33,-308.21,-360.47,-439.06,-504.27,-592.17,-676.13,-713.54,-770.4,-844.88,-878.96,-938.28,-1061.8,-1144.2,-1160.2,-1233.6,-1371.7,-1441.7,-1473.8,-1589.1,-1704.2,-1732.3,-1792.3,-1932.8,-2035.5,-2067.5,-2114.7,-2211.6,-2312.1,-2393.1,-2476.6,-2560.2,-2630.3,-2697.7,-2767.5,-2854.3,-2968.3,-3070.4,-3143.2,-3221.1,-3315.8,-3420.7,-3528.9,-3631.5,-3742.1,-3852.1,-3931.4,-3993.1,-4010.8,-3906.5,-3707.3,-3469.6,-3144.1,-2722.4,-2264.4,-1746.2,-1164.4,-615.99,-130.28,321.7,722.77,1077.2,1378,1584.3,1748.9,1902,1962.3,1972.1,2030.4,2063.6,2031,2008.9,1999.6,2011.4,2071.3,2104.4,2108.9,2169.6,2235.7,2247.7,2250.8,2250.3,2232.5,2199.8,2136.5,2091.2,2096.4,2081.5,2046.8,2039.4,2019.2,1997.2,2020.3,2033.5,2019.9,2030.5,2033.8,2001,1977.4,1968.1,1944.2,1904.8,1847.5,1772.9,1695.5,1600.9,1474.1,1342.1,1212.8,1067.4,939.59,857.66,769.58,662.16,575.84,481.48,361.96,273.47,210.6,139.9,88.828,46.165,-22.789,-81.498,-106.11,-135.29,-204.12,-302.81,-375.23,-405.84,-449.8,-511.1,-559.16,-611.13,-665.46,-718.62,-801.6,-897.01,-979.31,-1055.7,-1109,-1159.2,-1243.1,-1327.8,-1411.9,-1504.4,-1553.8,-1591.2,-1673.2,-1758.2,-1853.7,-1981.3,-2080.7,-2160.6,-2251.1,-2323.5,-2411,-2518.1,-2602.7,-2729.6,-2884.8,-2955.1,-3024.1,-3175.6,-3280.9,-3297.2,-3299.4,-3269.6,-3165.8,-2960.2,-2630.8,-2234.3,-1816.3,-1360,-877.88,-380.17,118.33,558.87,945.75,1314,1633.3,1884.7,2058.1,2146.5,2217.8,2292.7,2310.2,2287.7,2258,2209.1,2175.9,2159.7,2120.1,2092.9,2093.3,2085,2082.9,2078,2036.5,1993.6,1954,1890.2,1849.2,1841.6,1802.4,1751,1750.6,1776.1,1793.6,1822,1858.6,1889.2,1923.1,1953.6,1975,1986.5,1950.3,1870.4,1803.1,1732.1,1637.6,1566.7,1491,1353.5,1205.9,1081.4,943.58,802.47,679.69,559.56,446.8,361.45,295.46,222.04,130.78,26.889,-85.649,-170.3,-198.03,-228.39,-294.03,-345.67,-400.37,-487.81,-553.62,-595.97,-653.47,-705.84,-760.21,-835.04,-908.14,-1001.5,-1121.5,-1210.5,-1271.7,-1329.5,-1365,-1414.7,-1521.4,-1626.9,-1666.6,-1679.2,-1760.4,-1900.7,-1985.6,-2027.2,-2121.9,-2228.7,-2311.4,-2419.9,-2517.5,-2583.1,-2677.9,-2763.7,-2813.9,-2927.9,-3109.6,-3261.8,-3374.4,-3486.5,-3595.4,-3678.3,-3738.8,-3788.3,-3816,-3841.2,-3838.7,-3667.1,-3313,-2908.6,-2453.1,-1918.9,-1376.1,-836.44,-295.55,235.38,766.56,1210.8,1531.4,1838.9,2107.7,2270,2404.9,2490.9,2468.3,2450.5,2491.3,2504.5,2468.4,2454.5,2509.2,2567.3,2581.1,2632.7,2728.1,2775.1,2779.8,2776.3,2772.5,2784.8,2753.8,2657.2,2599,2600.6,2588.2,2552.7,2520,2492,2460.2,2434.6,2433.6,2428,2398.8,2380.1,2360.5,2318.2,2281,2239.3,2170.5,2090.7,2003.6,1924.4,1860,1748.9,1582.7,1454.1,1386,1300.6,1171.6,1055.2,968.15,862.16,725.66,606.4,542.51,505.97,432.28,343.24,303.28,257.26,157.93,84.76,50.438,-9.8371,-85.323,-154.58,-217.87,-266.46,-332.04,-418.39,-487.13,-569.09,-677.44,-756.97,-809.45,-859.92,-917.32,-1017.9,-1145.6,-1254.2,-1354.7,-1444.7,-1535.6,-1666.6,-1779.5,-1853.9,-1984.3,-2129.2,-2202.5,-2277.9,-2363.1,-2390.5,-2432.1,-2527.3,-2615.9,-2716.8,-2820.9,-2878.2,-2964.2,-3104,-3202.4,-3279.1,-3369.4,-3416,-3467.7,-3563.4,-3607.6,-3652.2,-3790.3,-3868.1,-3792.1,-3660.4,-3460.4,-3160.9,-2821.6,-2404,-1873.6,-1306.9,-742.3,-207.37,283.38,781.08,1238.2,1575.1,1847.8,2077.8,2227.4,2321.1,2363.6,2369.9,2389,2386.9,2350.4,2326.3,2299.8,2287.7,2323.8,2350.4,2373.2,2434.1,2471.4,2481.6,2495.7,2449.5,2382.6,2392.3,2385.6,2308.9,2285.2,2295.7,2229.9,2179.4,2232.4,2278.5,2274.3,2299.4,2334.8,2324.2,2294.3,2257.9,2210.5,2180.1,2145.5,2063.3,1969.5,1897.3,1802.8,1678.2,1576.5,1487.1,1370.5,1260.8,1164.3,1023,867.35,779.44,737.79,675.75,577.33,463.69,376.8,335.24,296.92,219.34,121.28,46.716,-11.081,-89.46,-177.74,-249.55,-305.92,-341.9,-382.08,-473.32,-580.08,-639.32,-666.28,-710.14,-796.99,-894.91,-946.97,-976.14,-1026,-1087.1,-1169.7,-1250.1,-1272.1,-1310.2,-1425.7,-1520.3,-1578.4,-1680.2,-1782.8,-1845.8,-1934.8,-2041.9,-2101.4,-2140.7,-2218.1,-2338.6,-2489.4,-2632.9,-2721.9,-2783.9,-2868.5,-2967.2,-3072.8,-3164.9,-3185.3,-3137.5,-3036.3,-2845,-2578.7,-2244.2,-1808.2,-1331,-845.27,-320.5,164.27,598.64,1061.4,1445.1,1699.2,1960.3,2185,2289.7,2371.5,2423,2387,2349.4,2331.4,2287.1,2226.5,2139.3,2056.2,2040.4,2044.8,2023,2002.2,1981.5,1953.6,1919,1868.6,1818,1770.9,1730.9,1721.8,1719.3,1723.4,1777.9,1819.5,1794.8,1787.7,1824.3,1845,1844.8,1831.1,1797.1,1754.6,1716.6,1696,1671.4,1605.3,1517,1405.5,1251.1,1119.4,1030.4,912.42,769.82,631.95,503.67,432.28,369.99,226.4,101.09,63.905,0.40169,-103.63,-181.92,-262.27,-330.54,-359.08,-412.33,-487.51,-541.26,-610.18,-675.61,-700.45,-752.28,-831.92,-876.81,-933.04,-1013.8,-1064,-1138.1,-1251.2,-1300.8,-1316,-1384.8,-1467.1,-1545,-1632.5,-1690.5,-1748.2,-1837.8,-1921.4,-2030.5,-2153.3,-2205,-2275.5,-2418.6,-2475.9,-2474.5,-2580.2,-2719.5,-2797.1,-2875.4,-2961.4,-3032.7,-3127.7,-3239.7,-3329.8,-3421.1,-3550,-3672,-3734.6,-3789.9,-3856.6,-3855.1,-3796.6,-3700.2,-3446.7,-3029,-2614.5,-2251.8,-1828.9,-1278.2,-688.59,-172.85,306.31,771.72,1140.2,1449.1,1758.5,1991.3,2158.9,2311.8,2364.2,2318.1,2280.9,2257.4,2227.7,2220.1,2254.1,2308.1,2319.7,2320.7,2389.6,2433.1,2397.7,2403.9,2414.4,2333.1,2279.9,2306.5,2293.9,2246.4,2259.4,2321.6,2348.5,2317,2289,2281.2,2265,2274.1,2289.7,2242.8,2205,2226,2200.7,2123.9,2077.6,2031,1955.8,1877,1779.4,1671.9,1575.3,1454,1312.1,1190.6,1087.9,1009.7,939.77,817.33,678.59,605.14,551.51,454.45,348.85,269.14,202.55,124.09,42.459,4.9308,-22.854,-114.77,-208.23,-256,-332.28,-410.04,-442.29,-523.63,-637.06,-667.64,-688.74,-787.56,-883.43,-939.48,-1011.9,-1102.7,-1179.6,-1256.7,-1353.7,-1437.1,-1497.2,-1580.3,-1666.1,-1725.9,-1818.6,-1923.8,-1979,-2065.3,-2203.9,-2289.4,-2357.6,-2479.3,-2577.4,-2638.1,-2744.5,-2881.6,-2993.7,-3078.9,-3147.6,-3228.6,-3352.3,-3488.4,-3589,-3661.1,-3742.7,-3833,-3890.9,-3908.8,-3895.8,-3804.2,-3602.7,-3325.5,-2967.1,-2509.3,-2012.1,-1503.6,-954.72,-409.73,79.68,547.51,987.6,1331.4,1581.5,1793,1980,2120.9,2196.4,2223.6,2243.5,2251.1,2225.9,2199,2174.9,2123.2,2093.1,2127.6,2161.2,2172.2,2205.6,2223.3,2188.5,2157.3,2139.4,2089.2,2038.3,2036.7,2041.4,2013.6,2015.8,2073.9,2098.4,2072.6,2077.2,2094.5,2081.6,2096.4,2142.4,2159.9,2159.6,2134,2052.3,1974.5,1928.8,1851.6,1745,1655.2,1563.3,1444.8,1324.9,1235.2,1158.7,1047.6,920.34,824.42,726.42,609.93,531.79,466.13,353.5,255.15,200.39,114.61,21.628,-19.453,-82.832,-185.83,-228.02,-229.34,-268.64,-317.42,-365.31,-435.39,-485.65,-515.57,-581.26,-666.06,-724.78,-770.6,-837.59,-911.54,-944.83,-971.9,-1056.8,-1142.7,-1200,-1298.4,-1400,-1458.8,-1548.2,-1647.2,-1706.8,-1804.3,-1921.4,-1981.7,-2059.9,-2183.8,-2279.9,-2368.4,-2472.7,-2554.8,-2633.9,-2740.7,-2853.3,-2952.1,-3036.3,-3103.3,-3131,-3094.2,-2981.4,-2769.9,-2467.4,-2109.8,-1680.6,-1203.7,-749.47,-277.48,232.41,694.45,1118.9,1515.6,1786.1,1963.3,2138.8,2262.9,2330.6,2380.6,2355.5,2286.1,2262.2,2224.7,2140.7,2078.1,2023.1,1966.2,1948.2,1917,1852.4,1820,1769.8,1672,1653.8,1695.2,1638.1,1534.7,1514.5,1532.8,1550.5,1605.7,1651.5,1645.2,1653.8,1694,1705.1,1696.7,1714,1750.9,1771.6,1730,1637.7,1572.4,1528.3,1446,1346.9,1232.4,1067.6,910.82,808.34,709.11,591.86,473.52,368.61,306.84,250.54,123.26,-22.416,-95.11,-142.79,-232.48,-321.75,-380.19,-445.15,-520.68,-588.8,-651.02,-680.85,-688.09,-750.68,-851.33,-917.29,-994.13,-1108.3,-1179,-1213.6,-1292,-1397,-1470.1,-1521.1,-1596.8,-1693.3,-1755.1,-1792.4,-1863.1,-1950.6,-2034.2,-2139.2,-2244.8,-2329,-2412.5,-2485.6,-2550.9,-2637.5,-2725.7,-2799.9,-2880.4,-2976.7,-3104.9,-3252.5,-3366.7,-3455,-3550.2,-3636.4,-3718.9,-3825.9,-3945.1,-4031.7,-4020.3,-3881.9,-3663.5,-3374.9,-2964,-2467.4,-1976.5,-1465.7,-883.85,-291.79,270.28,801.91,1231.8,1570.7,1897.3,2118.2,2195.9,2296.4,2406.7,2404.1,2370.7,2348.3,2273.7,2201.4,2161.3,2133.4,2171.6,2230.8,2227.1,2225.9,2251.7,2257.2,2265.1,2266,2243.4,2236.7,2215.2,2171.4,2168.4,2166.6,2146.3,2165.9,2167.3,2134,2158.1,2182.3,2159.5,2187.4,2237.1,2232.8,2209,2144.4,2045.3,2005.6,1984.6,1898.2,1772.1,1633.2,1507.1,1406.4,1285.7,1153.4,1039,923.75,822.62,733.81,635.74,562.27,490.28,385.54,299.83,214.23,115.49,73.451,12.013,-116.64,-165.8,-180.26,-301.11,-393.12,-377.28,-404.2,-506.12,-598.44,-655.29,-714.75,-846.71,-1006.5,-1089.7,-1151.5,-1238.4,-1296.3,-1367.5,-1462.6,-1494.7,-1516.3,-1608.4,-1717.5,-1791.7,-1821.5,-1859.8,-1988.2,-2129.4,-2208.7,-2320.9,-2447.3,-2499.6,-2579.8,-2729,-2839.8,-2929.6,-3037.2,-3107.7,-3182,-3323.6,-3461.6,-3532.5,-3552.8,-3522.2,-3413.8,-3218.5,-2945.9,-2588.6,-2134.5,-1618.8,-1074.3,-513.81,2.6044,463.32,921.01,1317.9,1608.8,1879.3,2107.3,2220.2,2298.5,2385.1,2438.6,2458.8,2403.2,2278.9,2203.4,2167.6,2108.5
